Shimmer_6D72_TimestampSync_Unix_CAL,Shimmer_6D72_Accel_LN_X_CAL,Shimmer_6D72_Accel_LN_Y_CAL,Shimmer_6D72_Accel_LN_Z_CAL,Shimmer_6D72_ECG_LA-RA_24BIT_CAL,Shimmer_6D72_ECG_LL-LA_24BIT_CAL,Shimmer_6D72_ECG_LL-RA_24BIT_CAL,Shimmer_6D72_ECG_RESP_24BIT_CAL,Shimmer_6D72_ECG_Vx-RL_24BIT_CAL
ms,m/(s^2),m/(s^2),m/(s^2),mV,mV,mV,mV,mV
1.7089480994039917E12,2.0869565217391304,-6.532608695652174,2.380434782608696,2.9691753350705308,30.144893544303606,33.11406887937414,482.0044233804254,583.719864335044
1.7089480994235234E12,2.0760869565217392,-6.5,2.4130434782608696,2.94948613041474,30.14842750411362,33.09791363452836,482.0056494481146,583.7011848331911
1.708948099443055E12,2.0869565217391304,-6.5,2.380434782608696,2.79716525044027,30.18210830475191,32.97927355519218,482.0086785565232,583.7742440431409
1.7089480994625864E12,2.0760869565217392,-6.478260869565217,2.4130434782608696,3.746790736531107,30.900656092245118,34.647446828776225,482.00492823182685,583.7122915640225
1.7089480994821182E12,2.0760869565217392,-6.445652173913043,2.380434782608696,3.457222396996307,30.168188830398186,33.625411227394494,482.01271736773464,583.6126915946832
1.7089480995016497E12,2.108695652173913,-6.467391304347826,2.1630434782608696,2.9831669310530344,30.0856095654499,33.068776496502934,482.0076688537203,583.7897501933277
1.7089480995211814E12,2.130434782608696,-6.478260869565217,2.358695652173913,2.9738632409409576,30.146624463394225,33.12048770433518,482.0149531382267,583.7207297945893
1.708948099540713E12,2.043478260869565,-6.554347826086956,2.6630434782608696,2.9624680235943823,30.166530032936343,33.128998056530726,482.01300585424974,583.7019060494788
1.7089480995602446E12,2.0760869565217392,-6.5978260869565215,2.391304347826087,2.970257159502168,30.180161020774968,33.150418180277136,482.02151620644526,583.6989490626991
1.7089480995797761E12,2.0978260869565215,-6.543478260869565,2.2391304347826084,2.9727814165093207,30.186002872705807,33.15878428921513,482.0309641398149,583.6936120621696
1.7089480995993079E12,2.130434782608696,-6.467391304347826,2.3369565217391304,2.973430511168303,30.20857694251263,33.18200745368093,482.0286562476941,583.7100557935305
1.7089480996188394E12,2.0543478260869565,-6.467391304347826,2.4347826086956523,2.979849336129348,30.225309160388612,33.20515849651796,482.0272859367473,583.717267956408
1.708948099638371E12,2.010869565217391,-6.5,2.4565217391304346,2.9913166751046987,30.245935946218488,33.23725262132319,482.02339136879345,583.7339280526553
1.7089480996579026E12,2.032608695652174,-6.554347826086956,2.5,2.9964373107477797,30.254085690270152,33.25052300101793,482.0194246792108,583.7496505677284
1.7089480996774343E12,2.0652173913043477,-6.608695652173913,2.3478260869565215,3.0306950844162803,30.236560134477635,33.267255218893915,482.0237519769373,583.7711428131036
1.7089480996969658E12,2.119565217391304,-6.576086956521739,2.3043478260869565,3.0480042753224703,30.2423298647797,33.29033414010217,482.02014589549856,583.7689791642402
1.7089480997164976E12,2.0978260869565215,-6.456521739130435,2.391304347826087,3.0376908824075324,30.256465704019753,33.294156586427285,482.0271416934898,583.7477032837514
1.708948099736029E12,2.108695652173913,-6.434782608695652,2.3043478260869565,2.9866287692342723,30.26043239360242,33.247061162836694,482.02310288227835,583.7381111071243
1.7089480997555605E12,2.108695652173913,-6.4021739130434785,2.4456521739130435,2.973069903024424,30.231295255577002,33.204365158601426,482.0321180858753,583.726283160005
1.7089480997750923E12,2.0760869565217392,-6.467391304347826,2.4782608695652173,2.9824457147652765,30.213409091640607,33.19585480640588,482.0378878161774,583.7345050256855
1.7089480997946238E12,2.0760869565217392,-6.489130434782608,2.4456521739130435,2.963333483139692,30.21506788910245,33.17840137224214,482.03074777492856,583.7242637543993
1.7089480998141555E12,2.0869565217391304,-6.5,2.380434782608696,2.9814360119624155,30.20172538777893,33.183161399741344,482.03377688333717,583.7409959722753
1.708948099833687E12,2.0760869565217392,-6.434782608695652,2.391304347826087,2.9664347131770508,30.227472809251886,33.19390752242894,482.0337047617084,583.7261389167475
1.7089480998532188E12,2.0543478260869565,-6.478260869565217,2.467391304347826,2.972997781395648,30.228987363456177,33.201985144851825,482.02764654489124,583.7276534709517
1.7089480998727502E12,2.119565217391304,-6.489130434782608,2.4347826086956523,2.9811475254473123,30.23886802659846,33.22001555204577,482.0384647892076,583.7341444175416
1.708948099892282E12,2.0978260869565215,-6.5,2.467391304347826,2.98323905268181,30.236415891220084,33.219654943901894,482.0309641398149,583.7277255925806
1.7089480999118135E12,2.119565217391304,-6.543478260869565,2.4239130434782608,2.988503931582443,30.22927584997128,33.21777978155372,482.04012358666944,583.7214510108771
1.7089480999313452E12,2.0978260869565215,-6.543478260869565,2.4565217391304346,2.9783347819250565,30.239661364514994,33.21799614644005,482.0334162751933,583.6936841837984
1.7089480999508767E12,2.0760869565217392,-6.521739130434782,2.4565217391304346,2.9741517274560607,30.29007438302927,33.26422611048533,482.047335749547,583.697362386866
1.7089480999704084E12,2.0869565217391304,-6.456521739130435,2.4130434782608696,2.988431809953667,30.307816303708115,33.29624811366178,482.04610968185784,583.6816398717929
1.70894809998994E12,2.108695652173913,-6.445652173913043,2.4565217391304346,3.0015579463908613,30.349646848398073,33.351204794788934,482.04553270882764,583.6682973704693
1.7089481000094717E12,2.0652173913043477,-6.434782608695652,2.543478260869565,3.008481622753337,30.26454332644264,33.27302494919598,482.04553270882764,583.7091182123564
1.7089481000290032E12,2.0869565217391304,-6.423913043478261,2.5,2.989513634385304,30.218962457056342,33.208476091441646,482.05079758772825,583.7319807686783
1.7089481000485347E12,2.141304347826087,-6.423913043478261,2.532608695652174,2.993624567225524,30.1785743449419,33.172198912167424,482.04834545234985,583.7440972023127
1.7089481000680664E12,2.0869565217391304,-6.456521739130435,2.543478260869565,2.9191229247001322,30.17020823600391,33.08933116070404,482.04863393886495,583.7511651219327
1.708948100087598E12,2.108695652173913,-6.445652173913043,2.467391304347826,3.206743980257986,30.599981021878843,33.80672500213683,482.0416381408737,583.7841247062833
1.7089481001071296E12,2.0652173913043477,-6.445652173913043,2.5,3.702435934833996,30.745738833634714,34.44817476846871,482.0446672492823,583.671614965393
1.7089481001266611E12,2.0978260869565215,-6.445652173913043,2.4891304347826084,3.0444703155124566,29.949516051949985,32.99398636746244,482.0463260467441,583.8592754434676
1.7089481001461929E12,2.130434782608696,-6.423913043478261,2.4456521739130435,3.010933758131714,30.09274960669871,33.103683364830424,482.0507254660995,583.7984047887808
1.7089481001657244E12,2.0978260869565215,-6.4021739130434785,2.6630434782608696,3.0007646084743276,30.185353778046824,33.18611838652115,482.05447579079583,583.7439529590552
1.708948100185256E12,2.0,-6.467391304347826,2.8043478260869565,2.9975912568081924,30.207567239709768,33.20515849651796,482.0507254660995,583.7194316052713
1.7089481002047876E12,2.0652173913043477,-6.5,2.402173913043478,3.0135301367676424,30.19876840099912,33.21229853776676,482.04755211443336,583.7207297945893
1.7089481002243193E12,2.0869565217391304,-6.423913043478261,2.4891304347826084,3.021896245705634,30.213769699784486,33.23566594549012,482.04610968185784,583.7220279839073
1.7089481002438508E12,2.0978260869565215,-6.4021739130434785,2.7282608695652173,3.0234107999099256,30.23937287799989,33.262783677909816,482.046037560229,583.7277977142094
1.7089481002633826E12,2.0760869565217392,-6.423913043478261,2.5760869565217392,3.034806017256501,30.25105658186157,33.28586259911807,482.04870606049377,583.7275092276942
1.708948100282914E12,2.032608695652174,-6.467391304347826,2.5978260869565215,3.058750398010063,30.2494699060285,33.308220304038564,482.04921091189516,583.7285910521258
1.7089481003024458E12,2.043478260869565,-6.521739130434782,2.619565217391304,3.080891738044231,30.24896505462707,33.3298567926713,482.0451721006837,583.7434481076536
1.7089481003219773E12,2.0543478260869565,-6.565217391304348,2.4891304347826084,3.1178901336062115,30.2286267553123,33.34651688891851,482.0366617484882,583.7399141478437
1.7089481003415088E12,2.0760869565217392,-6.434782608695652,2.4565217391304346,3.144214528109375,30.22581401179004,33.370028539899415,482.03529143754145,583.7438087157975
1.7089481003610405E12,2.0652173913043477,-6.391304347826087,2.5652173913043477,3.0844978194830204,30.241320161976837,33.325817981459856,482.03529143754145,583.735947458261
1.708948100380572E12,2.0869565217391304,-6.4021739130434785,2.630434782608696,3.056009776116583,30.211750294178763,33.267760070295346,482.04394603299454,583.7294565116712
1.7089481004001038E12,2.0652173913043477,-6.467391304347826,2.5217391304347827,3.0451194101714387,30.185137413160497,33.230256823331935,482.03702235663206,583.712147320765
1.7089481004196353E12,2.0543478260869565,-6.5,2.641304347826087,3.0411527205887703,30.167539735739204,33.208692456327974,482.03853691083634,583.7123636856513
1.708948100439167E12,2.108695652173913,-6.467391304347826,2.5869565217391304,3.050095802556968,30.16862156017084,33.21871736272781,482.03204596424655,583.7069545634931
1.7089481004586985E12,2.119565217391304,-6.510869565217391,2.5,3.049879437670641,30.16624154642124,33.21612098409188,482.02281439576325,583.7131570235679
1.7089481004782302E12,2.0978260869565215,-6.478260869565217,2.543478260869565,3.0548558300561703,30.18081011543395,33.23566594549012,482.0214440848165,583.7191431187563
1.7089481004977617E12,2.0869565217391304,-6.456521739130435,2.5869565217391304,3.0728141156213424,30.187517426910098,33.26033154253144,482.02281439576325,583.7208019162181
1.7089481005172935E12,2.119565217391304,-6.456521739130435,2.7065217391304346,3.0793050622111635,30.179511926115985,33.25881698832715,482.0176216384914,583.7193594836425
1.708948100536825E12,2.130434782608696,-6.510869565217391,2.652173913043478,3.0807474947866793,30.183478615698654,33.26422611048533,482.02822351792145,583.724047389513
1.7089481005563567E12,2.119565217391304,-6.532608695652174,2.630434782608696,3.085291157399554,30.198047184711363,33.283338342110916,482.0256992609143,583.7202249431879
1.7089481005758882E12,2.152173913043478,-6.510869565217391,2.652173913043478,3.0720207777048087,30.248243838339313,33.32026461604412,482.02129984155897,583.7153206724311
1.70894810059542E12,2.1630434782608696,-6.5,2.652173913043478,3.099138510124506,30.270313056744705,33.36945156686921,482.02880049095165,583.678682885013
1.7089481006149514E12,2.108695652173913,-6.489130434782608,2.6630434782608696,3.105773699971879,30.292887126551527,33.398660826523404,482.0176216384914,583.6724083033096
1.7089481006344832E12,2.0869565217391304,-6.5,2.641304347826087,3.0997876047834882,30.18167557497926,33.281463179762746,482.02295863902077,583.7138782398556
1.7089481006540146E12,2.152173913043478,-6.5,2.608695652173913,3.0899790632699804,30.136383192108063,33.22636225537804,482.01560223288567,583.7128685370527
1.7089481006735461E12,2.0869565217391304,-6.489130434782608,2.630434782608696,3.095099698913062,30.110275162491227,33.20537486140429,482.01415980031015,583.7146715777722
1.708948100693078E12,2.0760869565217392,-6.5,2.5978260869565215,2.9624680235943823,30.106380594537328,33.06884861813171,482.0149531382267,583.7402026343588
1.7089481007126094E12,2.0760869565217392,-6.478260869565217,2.5652173913043477,3.55552417701771,30.8035803799129,34.35910455693061,482.0176216384914,583.7356589717459
1.708948100732141E12,2.0760869565217392,-6.5,2.619565217391304,3.8719217624571045,30.457901413190534,34.32982317564764,482.01798224663526,583.5615573598811
1.7089481007516726E12,2.0978260869565215,-6.456521739130435,2.4891304347826084,3.2497284710083574,29.853810650564515,33.10353912157287,482.0225980308769,583.8084296951806
1.7089481007712043E12,2.1630434782608696,-6.445652173913043,2.358695652173913,3.124236836938481,30.104505432189164,33.22874226912764,482.0218768145892,583.7083969960686
1.7089481007907358E12,2.0869565217391304,-6.434782608695652,2.880434782608696,3.126111999286652,30.094264160903,33.22037616018965,482.0170446654612,583.6848853450878
1.7089481008102676E12,2.0760869565217392,-6.543478260869565,2.7282608695652173,3.125390782998894,30.113015784384704,33.2384065673836,482.0262041123157,583.6771683308087
1.708948100829799E12,2.0652173913043477,-6.467391304347826,2.3478260869565215,3.143998163223048,30.12542070453414,33.26941886775719,482.02461743648263,583.6515651525933
1.7089481008493308E12,2.0869565217391304,-6.391304347826087,2.391304347826087,3.137002365231796,30.13638319210806,33.27338555733986,482.015818597772,583.6892126428143
1.7089481008688623E12,2.0869565217391304,-6.391304347826087,2.619565217391304,3.142627852276308,30.148283260856065,33.290911113132374,482.02295863902077,583.6827938178533
1.708948100888394E12,2.043478260869565,-6.489130434782608,2.5543478260869565,3.1499842584114384,30.16256334335367,33.31254760176511,482.0174773952338,583.6805580473612
1.7089481009079255E12,2.010869565217391,-6.565217391304348,2.5760869565217392,3.174000760793777,30.17100157392044,33.345002334714216,482.02490592299773,583.7063775904629
1.7089481009274573E12,2.0760869565217392,-6.565217391304348,2.467391304347826,3.1955651277977384,30.154918450703438,33.350483578501176,482.0202901387561,583.7420777967069
1.7089481009469888E12,2.0652173913043477,-6.58695652173913,2.4456521739130435,3.2228271034749874,30.144893544303603,33.36772064777859,482.0170446654612,583.7718640293913
1.7089481009665203E12,2.0869565217391304,-6.489130434782608,2.4347826086956523,3.235304145253199,30.154052991158128,33.38935713641133,482.02101135504387,583.7528960410233
1.708948100986052E12,2.0978260869565215,-6.423913043478261,2.467391304347826,3.1990269659789763,30.147273558053204,33.34630052403218,482.02137196318773,583.7303940928452
1.7089481010055835E12,2.0978260869565215,-6.434782608695652,2.4456521739130435,3.1836650590497326,30.113160027642255,33.29682508669199,482.02043438201366,583.7205855513317
1.7089481010251152E12,2.119565217391304,-6.478260869565217,2.4456521739130435,3.177318355717463,30.099096310030976,33.27641466574844,482.0205065036424,583.7267158897777
1.7089481010446467E12,2.032608695652174,-6.543478260869565,2.4565217391304346,3.186982653973419,30.072916158785365,33.259898812758784,482.00990462421237,583.723398294854
1.7089481010641785E12,2.0760869565217392,-6.467391304347826,2.4891304347826084,3.1892905460942447,30.06801188802861,33.257302434122856,482.016467692431,583.7267158897777
1.70894810108371E12,2.119565217391304,-6.478260869565217,2.391304347826087,3.184602640223818,30.072555550641486,33.257158190865304,482.01444828682526,583.7341444175416
1.7089481011032417E12,2.119565217391304,-6.478260869565217,2.4347826086956523,3.1889299379503657,30.077676186284567,33.26660612423493,482.01560223288567,583.7471263107212
1.7089481011227732E12,2.0978260869565215,-6.489130434782608,2.4456521739130435,3.192319654502828,30.06822825291494,33.26054790741777,482.01343858402237,583.7483523784105
1.708948101142305E12,2.0978260869565215,-6.5,2.5217391304347827,3.1887135730640384,30.07111311806597,33.25982669113001,482.00831794837933,583.7443856888277
1.7089481011618364E12,2.108695652173913,-6.532608695652174,2.4565217391304346,3.200830006698371,30.052722102728143,33.253552109426515,482.00550520485706,583.7502275407586
1.7089481011813682E12,2.119565217391304,-6.532608695652174,2.4456521739130435,3.2096288454090174,30.06873310431637,33.27836194972539,482.0069476374326,583.7490735946982
1.7089481012008997E12,2.0869565217391304,-6.532608695652174,2.467391304347826,3.1941948168509984,30.107462418968968,33.30165723581997,482.0132222191361,583.7592427443556
1.7089481012204314E12,2.0978260869565215,-6.489130434782608,2.391304347826087,3.2396314429797464,30.10674120268121,33.346372645660956,482.01315009750726,583.7541942303412
1.708948101239963E12,2.0652173913043477,-6.478260869565217,2.4239130434782608,3.2668934186569953,30.080777416321926,33.34767083497892,482.0106979621289,583.7653009611728
1.7089481012594944E12,2.0760869565217392,-6.478260869565217,2.4347826086956523,3.2262168200274495,29.967257972628833,33.19347479265628,482.0062264211448,583.8049678569994
1.7089481012790261E12,2.0652173913043477,-6.489130434782608,2.467391304347826,3.238405375290558,29.921821346500085,33.16022672179064,482.00932765118216,583.818959452982
1.7089481012985576E12,2.0652173913043477,-6.5,2.4239130434782608,3.2024166825314384,29.922326197901516,33.124742880432954,482.01372707053747,583.8156418580583
1.7089481013180894E12,2.0978260869565215,-6.489130434782608,2.4456521739130435,3.060769803615785,29.968484040318017,33.0292538439338,482.0157464761432,583.892595635962
1.7089481013376208E12,2.0869565217391304,-6.510869565217391,2.4782608695652173,3.6233906296957294,30.481629429057772,34.1050200587535,482.0148810165979,583.9168285032307
1.7089481013571526E12,2.0652173913043477,-6.510869565217391,2.4456521739130435,3.7990789173935555,29.81587467382845,33.614953591222005,482.0171889087187,583.7885962472673
1.708948101376684E12,2.119565217391304,-6.434782608695652,2.282608695652174,3.2931456915313833,29.703004324794332,32.996150016325714,482.01985740898346,583.9997683763228
1.7089481013962158E12,2.0978260869565215,-6.434782608695652,2.402173913043478,3.250521808924891,29.869605287266413,33.120127096191304,482.0181986115216,583.8724015799048
1.7089481014157473E12,2.010869565217391,-6.467391304347826,2.6956521739130435,3.250593930553667,29.86758588166069,33.11817981221436,482.0197131657259,583.8625930383913
1.708948101435279E12,2.0543478260869565,-6.478260869565217,2.4565217391304346,3.2471320923724285,29.86419616510823,33.11132825748066,482.0142319219389,583.8641075925956
1.7089481014548105E12,2.043478260869565,-6.489130434782608,2.358695652173913,3.2568685122571606,29.863907678593126,33.120776190850286,482.0140876786814,583.8614390923309
1.7089481014743423E12,2.0760869565217392,-6.434782608695652,2.467391304347826,3.2585273097190037,29.866648300486606,33.12517561020561,482.01711678708995,583.8870422705463
1.7089481014938738E12,2.0652173913043477,-6.467391304347826,2.4565217391304346,3.2640806751347395,29.871336206357032,33.13541688149177,482.02043438201366,583.8910089601289
1.7089481015134055E12,2.043478260869565,-6.543478260869565,2.467391304347826,3.2719419326713006,29.87703381503032,33.14897574770162,482.0167561789461,583.9015387179302
1.708948101532937E12,2.0217391304347827,-6.608695652173913,2.5543478260869565,3.297328746000379,29.876601085257665,33.17392983125804,482.01214039470443,583.9466147359151
1.7089481015524685E12,2.032608695652174,-6.641304347826087,2.4782608695652173,3.3254561812229375,29.845444541626524,33.17090072284946,482.0181986115216,583.9649336296242
1.7089481015720002E12,2.043478260869565,-6.5978260869565215,2.4565217391304346,3.3612285090957297,29.841117243899973,33.202345752995704,482.0171889087187,583.9953689569675
1.7089481015915317E12,2.0978260869565215,-6.532608695652174,2.4565217391304346,3.353583616445496,29.849266987951637,33.202850604397135,482.01884770618057,583.9780597660613
1.7089481016110635E12,2.108695652173913,-6.467391304347826,2.532608695652174,3.307570017286541,29.81277344379109,33.12034346107763,482.0106979621289,583.9814494826138
1.708948101630595E12,2.0869565217391304,-6.456521739130435,2.4782608695652173,3.288457785660957,29.79055998212814,33.0790177677891,482.014520408454,583.9763288469707
1.7089481016501267E12,2.0978260869565215,-6.445652173913043,2.5760869565217392,3.2998530030075317,29.764956803912735,33.064809806920266,482.0122125163332,583.9689724408356
1.7089481016696582E12,2.0760869565217392,-6.467391304347826,2.5217391304347827,3.2992760299773254,29.756374330088416,33.05565036006574,482.02137196318773,583.9882289157187
1.70894810168919E12,2.108695652173913,-6.456521739130435,2.467391304347826,3.287015353085441,29.753777951452488,33.04079330453793,482.02605986905814,583.9870749696582
1.7089481017087214E12,2.0978260869565215,-6.478260869565217,2.5652173913043477,3.294660245735675,29.744185774825308,33.03884602056098,482.0163955708022,583.9977489707171
1.7089481017282532E12,2.0869565217391304,-6.532608695652174,2.543478260869565,3.2861498935401317,29.73935362569733,33.02550351923746,482.01502525985546,583.987147091287
1.7089481017477847E12,2.0869565217391304,-6.543478260869565,2.4130434782608696,3.306632436112456,29.724568691798293,33.03120112791075,482.01956892246835,583.9994077681789
1.7089481017673164E12,2.0869565217391304,-6.543478260869565,2.5,3.305550611680819,29.72478505668462,33.03033566836544,482.02281439576325,583.9984701870048
1.708948101786848E12,2.141304347826087,-6.532608695652174,2.5217391304347827,3.311103977096555,29.704158270854744,33.0152622479513,482.0252665311416,584.007773877117
1.7089481018063796E12,2.119565217391304,-6.532608695652174,2.510869565217391,3.317450680428825,29.740146963613864,33.05759764404269,482.0244010715963,584.0021483900724
1.7089481018259111E12,2.0760869565217392,-6.510869565217391,2.5543478260869565,3.3171621939137217,29.759259195239448,33.07642138915317,482.02367985530856,583.9917628755287
1.7089481018454429E12,2.0978260869565215,-6.5,2.5869565217391304,3.347381156370778,29.78089568387219,33.12827684024297,482.0268532069747,583.9709197248125
1.7089481018649744E12,2.119565217391304,-6.478260869565217,2.5,3.365627928451053,29.754210681225146,33.1198386096762,482.0326950589055,583.9724342790169
1.7089481018845059E12,2.0869565217391304,-6.489130434782608,2.543478260869565,3.324590721677628,29.655836779574965,32.98042750125259,482.0350750726551,584.0040235524206
1.7089481019040376E12,2.141304347826087,-6.467391304347826,2.5978260869565215,3.325311937965386,29.62150688427769,32.946818822243074,482.0291610990955,584.0163563509412
1.708948101923569E12,2.119565217391304,-6.467391304347826,2.5869565217391304,3.32249919444313,29.58688850246531,32.90938769690844,482.0333441535645,584.01642847257
1.7089481019431008E12,2.130434782608696,-6.478260869565217,2.5869565217391304,3.1672934493176284,29.605640125947016,32.772933575264645,482.0291610990955,584.0851603847933
1.7089481019626323E12,2.141304347826087,-6.478260869565217,2.619565217391304,3.6244003324985905,30.11186183832429,33.73626217082288,482.03233445076165,584.0879010066868
1.708948101982164E12,2.119565217391304,-6.510869565217391,2.5652173913043477,3.801026201370502,29.745916693915927,33.54694289528643,482.0369502350033,583.8561020918014
1.7089481020016956E12,2.152173913043478,-6.467391304347826,2.4239130434782608,3.3926735392419745,29.31722573247263,32.709899271714605,482.03882539735145,584.1699032986049
1.7089481020212273E12,2.217391304347826,-6.478260869565217,2.5869565217391304,3.347453277999554,29.548014944555156,32.89546822255471,482.04012358666944,584.0268861087425
1.7089481020407588E12,2.0760869565217392,-6.510869565217391,2.858695652173913,3.3524296703850833,29.56972355481667,32.922153225201754,482.0372387215184,584.0152024048808
1.7089481020602905E12,2.130434782608696,-6.5,2.5760869565217392,3.35351149481672,29.55717439140968,32.9106858862264,482.0258435041718,584.0065478094277
1.708948102079822E12,2.119565217391304,-6.445652173913043,2.543478260869565,3.3640412526179855,29.557751364439888,32.921792617057875,482.03997934341186,584.0180872700319
1.7089481020993538E12,2.141304347826087,-6.4021739130434785,2.543478260869565,3.3551702922785633,29.582128474966105,32.93729876724467,482.03983510015433,584.0169333239714
1.7089481021188853E12,2.0760869565217392,-6.391304347826087,2.75,3.368657036859636,29.589340637843684,32.95799767470332,482.0366617484882,584.0258764059397
1.708948102138417E12,2.043478260869565,-6.478260869565217,2.7065217391304346,3.3895723092046155,29.589629124358787,32.979201433563404,482.04697514140315,584.0329443255597
1.7089481021579485E12,2.0652173913043477,-6.510869565217391,2.760869565217391,3.4136609332157297,29.60088009844781,33.01454103166354,482.0457490737139,584.0480898676026
1.70894810217748E12,2.0760869565217392,-6.576086956521739,2.684782608695652,3.436379246280104,29.58616728617755,33.02254653245765,482.0432969383356,584.0678511938871
1.7089481021970117E12,2.108695652173913,-6.58695652173913,2.467391304347826,3.4645788031314377,29.592081259737164,33.0566600628686,482.04423451950964,584.0731160727878
1.7089481022165432E12,2.108695652173913,-6.456521739130435,2.619565217391304,3.4681848845702277,29.598572206326985,33.06675709089721,482.03997934341186,584.0500371515795
1.708948102236075E12,2.141304347826087,-6.391304347826087,2.6739130434782608,3.4236858396155645,29.607154680151304,33.03084051976687,482.043152695078,584.025443676167
1.7089481022556064E12,2.152173913043478,-6.358695652173913,2.717391304347826,3.3867595656823597,29.551404661107618,32.93816422678998,482.0422151139039,584.0286891494619
1.7089481022751382E12,2.108695652173913,-6.413043478260869,2.8260869565217392,3.3843795519327586,29.530561510391415,32.914941062324175,482.03997934341186,584.0176545402592
1.7089481022946697E12,2.0760869565217392,-6.467391304347826,2.7282608695652173,3.376013442994767,29.501424372365996,32.877437815360764,482.0406284380709,584.0231357840462
1.7089481023142014E12,2.0652173913043477,-6.456521739130435,2.717391304347826,3.378032848600489,29.497024953010673,32.87505780161116,482.04654241163047,584.0185921214334
1.708948102333733E12,2.108695652173913,-6.456521739130435,2.6956521739130435,3.3854613763643955,29.50120800747967,32.886669383844065,482.04964364166784,584.039291028892
1.7089481023532646E12,2.0869565217391304,-6.434782608695652,2.7282608695652173,3.3793310379184534,29.51628142789381,32.89561246581226,482.0440902762521,584.0198903107513
1.7089481023727961E12,2.141304347826087,-6.4021739130434785,2.8152173913043477,3.391086863408907,29.512963832970122,32.90405069637903,482.0464702900017,584.0217654730994
1.708948102392328E12,2.108695652173913,-6.456521739130435,2.782608695652174,3.3954862827642303,29.501135885850893,32.896622168615124,482.0464702900017,584.0152745265096
1.7089481024118594E12,2.119565217391304,-6.510869565217391,2.760869565217391,3.3946929448476966,29.517363252325445,32.91205619717314,482.0536103312505,584.0126781478737
1.708948102431391E12,2.119565217391304,-6.5,2.760869565217391,3.4018329860964998,29.56027562144704,32.96210860754354,482.05815399386336,584.0175102970016
1.7089481024509226E12,2.0978260869565215,-6.456521739130435,2.760869565217391,3.418709447230035,29.589340637843684,33.00805008507372,482.0500042498117,583.9875076994309
1.708948102470454E12,2.108695652173913,-6.423913043478261,2.7282608695652173,3.4471253689676966,29.557102269780906,33.0042276387486,482.0454605871988,584.0097932827226
1.7089481024899858E12,2.0869565217391304,-6.4021739130434785,2.8260869565217392,3.4037081484446703,29.486855803353286,32.89056395179796,482.0429363301917,584.020323040524
1.7089481025095173E12,2.119565217391304,-6.4021739130434785,2.880434782608696,3.4107039464359223,29.42923062196143,32.839934568397354,482.0533218447354,584.0486668406328
1.708948102529049E12,2.108695652173913,-6.445652173913043,2.75,3.4026263240130334,29.409397174048088,32.81202349806112,482.0518794121599,584.0359734339683
1.7089481025485806E12,2.0978260869565215,-6.445652173913043,2.7717391304347827,3.250593930553667,29.381053373939206,32.63164730449287,482.05346608799294,584.0938149802464
1.7089481025681123E12,2.0978260869565215,-6.413043478260869,2.8043478260869565,3.9701514208497315,30.072555550641482,34.042706971491214,482.0414938976162,584.0559511251391
1.7089481025876438E12,2.0978260869565215,-6.423913043478261,2.7391304347826084,3.8645653563219735,29.6730017272236,33.537567083545575,482.0530333582203,583.8405238199858
1.7089481026071755E12,2.130434782608696,-6.4021739130434785,2.6630434782608696,3.430032542947834,29.198080801735024,32.62811334468286,482.04784060094846,584.1401170659205
1.708948102626707E12,2.0978260869565215,-6.3478260869565215,2.6956521739130435,3.4284458671147666,29.3533586684893,32.78180453560407,482.0525285068189,584.0264533789699
1.7089481026462388E12,2.032608695652174,-6.423913043478261,3.0543478260869565,3.4461877877936113,29.381053373939203,32.827241161732815,482.0489945470089,583.9911137808697
1.7089481026657703E12,2.119565217391304,-6.445652173913043,2.8152173913043477,3.4546981399891545,29.374634548978158,32.82933268896731,482.0510139526146,583.9800791716671
1.708948102685302E12,2.130434782608696,-6.391304347826087,2.4782608695652173,3.467319425024918,29.378961846704705,32.84628127172962,482.0531054798491,583.9752470225391
1.7089481027048335E12,2.141304347826087,-6.369565217391304,2.684782608695652,3.4853498322188656,29.373696967804072,32.85904680002294,482.03853691083634,583.9674578866312
1.7089481027243652E12,2.108695652173913,-6.358695652173913,2.858695652173913,3.4857104403627446,29.38639037446861,32.872100814831356,482.0443787627672,583.9660154540558
1.7089481027438967E12,2.119565217391304,-6.456521739130435,2.760869565217391,3.509366334601204,29.396487402497222,32.905853737098425,482.0351471942839,583.954692358338
1.7089481027634282E12,2.0760869565217392,-6.521739130434782,2.8152173913043477,3.534897391187834,29.388554023331885,32.92345141451972,482.0311083830725,583.9653663593967
1.70894810278296E12,2.0978260869565215,-6.5978260869565215,2.7717391304347827,3.5788194631122905,29.375716373409794,32.95453583652208,482.0344980996249,583.9793579553793
1.7089481028024915E12,2.108695652173913,-6.5978260869565215,2.717391304347826,3.598003816366651,29.378312752045723,32.97631656841237,482.03529143754145,583.9797906851519
1.7089481028220232E12,2.0869565217391304,-6.532608695652174,2.782608695652174,3.563962407584478,29.414085079918515,32.97804748750299,482.03673387011696,583.9709197248125
1.7089481028415547E12,2.152173913043478,-6.5,2.7065217391304346,3.5350416344453857,29.380837009052875,32.91587864349826,482.02988231538325,583.9727227655319
1.7089481028610864E12,2.1630434782608696,-6.5,2.7391304347826084,3.51217907812346,29.361003561139533,32.87318263926299,482.02901685583794,583.9683954678054
1.708948102880618E12,2.141304347826087,-6.554347826086956,2.760869565217391,3.4999905228603514,29.339078585991693,32.839069108852044,482.0199295306122,583.9741651981075
1.7089481029001497E12,2.0978260869565215,-6.510869565217391,2.7717391304347827,3.503885090814244,29.33590523432556,32.8397903251398,482.02129984155897,583.9622651293594
1.7089481029196812E12,2.108695652173913,-6.489130434782608,2.717391304347826,3.499125063315042,29.34167496462762,32.84080002794266,482.0224537876194,583.9776270362887
1.708948102939213E12,2.0978260869565215,-6.434782608695652,2.6956521739130435,3.507058442480379,29.354296249663385,32.86135469214376,482.0223095443618,583.9873634561734
1.7089481029587444E12,2.108695652173913,-6.478260869565217,2.652173913043478,3.509005726457325,29.361364169283412,32.87036989574074,482.0183428547791,583.9934216729905
1.7089481029782761E12,2.108695652173913,-6.434782608695652,2.7065217391304346,3.526242795734739,29.35970537182157,32.88594816755631,482.02425682833876,583.9970277544294
1.7089481029978076E12,2.108695652173913,-6.456521739130435,2.7065217391304346,3.521699133121864,29.36655692655527,32.88825605967713,482.0163234491734,583.9937101595057
1.7089481030173394E12,2.108695652173913,-6.478260869565217,2.630434782608696,3.522348227780846,29.379106089962256,32.9014543177431,482.0246895581114,583.9916907538999
1.7089481030368708E12,2.1630434782608696,-6.467391304347826,2.684782608695652,3.514486970244285,29.434495500862063,32.94898247110635,482.02209317947546,583.9738045899635
1.7089481030564026E12,2.108695652173913,-6.5,2.760869565217391,3.550403541374629,29.458439881615625,33.00884342299025,482.01899194943815,583.951807493187
1.708948103075934E12,2.0978260869565215,-6.510869565217391,2.608695652173913,3.5677848539095947,29.463055665857276,33.03084051976687,482.0215883280741,583.942143194931
1.7089481030954656E12,2.0543478260869565,-6.532608695652174,2.532608695652174,3.535546485846816,29.36158053416974,32.897127020016555,482.0170446654612,583.9817379691289
1.7089481031149973E12,2.0217391304347827,-6.510869565217391,2.5978260869565215,3.5338155667561972,29.32970277425084,32.86351834100704,482.0119240298181,583.9772664281447
1.7089481031345288E12,1.9891304347826086,-6.510869565217391,2.5652173913043477,3.534176174900076,29.30849901539076,32.842675190290834,482.0076688537203,583.98815679409
1.7089481031540605E12,1.9891304347826086,-6.5,2.5760869565217392,3.3822880246982607,29.29804137921827,32.68032940391653,482.01141917841665,584.0467916782846
1.708948103173592E12,2.032608695652174,-6.489130434782608,2.5652173913043477,3.6616150929468985,29.700335824529628,33.36195091747653,482.01343858402237,584.0415989210128
1.7089481031931238E12,2.0,-6.489130434782608,2.608695652173913,4.314892806398011,29.525873604520992,33.840766410919,482.019352557582,583.871680363617
1.7089481032126553E12,2.032608695652174,-6.489130434782608,2.380434782608696,3.679284891996967,29.061843044977554,32.74112793697452,482.02101135504387,584.1264860780819
1.708948103232187E12,2.108695652173913,-6.5,2.3369565217391304,3.560356326145688,29.31188873194322,32.87224505808891,482.0184870980367,583.994215010907
1.7089481032517185E12,1.9891304347826086,-6.467391304347826,2.9130434782608696,3.5630969480391683,29.318307556904266,32.88140450494343,482.0115634216742,583.9694051706082
1.7089481032712502E12,2.0543478260869565,-6.521739130434782,2.5760869565217392,3.5702369892879715,29.326168814440827,32.8964058037288,482.00875067815196,583.9721457925017
1.7089481032907817E12,2.032608695652174,-6.478260869565217,2.282608695652174,3.570813962318178,29.331361571712684,32.90217553403086,482.00637066440237,583.9557741827696
1.7089481033103135E12,2.0,-6.423913043478261,2.4239130434782608,3.559562988229154,29.35537807409502,32.914941062324175,481.9998797178125,583.9484898982632
1.708948103329845E12,1.9782608695652173,-6.369565217391304,2.543478260869565,3.560284204516912,29.3944679968915,32.95475220140841,482.0050724750844,583.9541875069365
1.7089481033493767E12,1.967391304347826,-6.478260869565217,2.532608695652174,3.5746364086432947,29.388842509846988,32.96347891849028,482.0037021641377,583.944378965423
1.7089481033689082E12,2.0,-6.521739130434782,2.543478260869565,3.5933159104962247,29.39821832158784,32.991534232084064,481.9931002847076,583.9883010373475
1.7089481033884397E12,2.010869565217391,-6.576086956521739,2.4565217391304346,3.6159621019318227,29.39807407833029,33.01403618026211,482.00319731273623,584.0081344852608
1.7089481034079714E12,2.032608695652174,-6.608695652173913,2.3478260869565215,3.643801050639278,29.385524914923298,33.02932596556258,482.0088227997807,584.0333770553324
1.708948103427503E12,2.043478260869565,-6.58695652173913,2.4347826086956523,3.660028417113831,29.39749710530008,33.05752552241391,482.00759673209154,584.0025089982163
1.7089481034470347E12,2.0760869565217392,-6.510869565217391,2.402173913043478,3.638680414996197,29.380981252310423,33.01966166730662,481.9985815284946,583.9815216042425
1.7089481034665662E12,2.130434782608696,-6.445652173913043,2.391304347826087,3.6078123578801584,29.357181114814416,32.96499347269457,481.9940378658817,583.9550529664818
1.708948103486098E12,2.0869565217391304,-6.467391304347826,2.467391304347826,3.611779047462827,29.32869307144798,32.940472118910805,481.992018460276,583.9557020611409
1.7089481035056294E12,2.032608695652174,-6.510869565217391,2.467391304347826,3.6239676027259358,29.316576637813643,32.94054424053958,482.00276458296355,583.9461098845136
1.7089481035251611E12,2.0760869565217392,-6.478260869565217,2.3369565217391304,3.615817858674271,29.316648759442423,32.93246661811669,482.00348579925134,583.9537547771639
1.7089481035446926E12,2.108695652173913,-6.456521739130435,2.380434782608696,3.6284391437100347,29.30546990698217,32.93390905069221,482.0057215697434,583.9684675894341
1.7089481035642244E12,2.130434782608696,-6.489130434782608,2.4130434782608696,3.620938494317352,29.31599966478344,32.93693815910079,482.00463974531175,583.9621930077307
1.7089481035837559E12,2.152173913043478,-6.510869565217391,2.4239130434782608,3.616466953333253,29.319677867851006,32.93614482118426,482.00348579925134,583.9726506439031
1.7089481036032876E12,2.141304347826087,-6.532608695652174,2.4456521739130435,3.620000913143267,29.315783299897113,32.93578421304038,482.0069476374326,583.9722179141305
1.708948103622819E12,2.141304347826087,-6.543478260869565,2.4130434782608696,3.6174766561361142,29.32220212485816,32.93967878099427,482.00759673209154,583.9667366703435
1.7089481036423508E12,2.141304347826087,-6.521739130434782,2.4239130434782608,3.6132214800383426,29.384082482347786,32.99730396238613,482.0071640023189,583.9440904789079
1.7089481036618823E12,2.119565217391304,-6.532608695652174,2.4239130434782608,3.6425749829500895,29.370451494509158,33.01302647745925,482.0044233804254,583.9517353715581
1.7089481036814138E12,2.119565217391304,-6.521739130434782,2.4456521739130435,3.6654375392720153,29.391943739884344,33.05738127915636,481.9980045554644,583.9502208173539
1.7089481037009456E12,2.108695652173913,-6.543478260869565,2.467391304347826,3.689021311881699,29.322706976259585,33.011728288141285,482.0052888399707,583.9865701182569
1.708948103720477E12,2.108695652173913,-6.532608695652174,2.4891304347826084,3.6515901865470632,29.235656170327207,32.88724635687427,482.0054330832283,584.0017156602997
1.7089481037400088E12,2.0978260869565215,-6.521739130434782,2.4565217391304346,3.6429355910939685,29.215822722413865,32.858758313507835,482.00024032595644,584.0090720664349
1.7089481037595403E12,2.0652173913043477,-6.543478260869565,2.467391304347826,3.616827561477132,29.218779709193676,32.835607270670806,482.00463974531175,584.0091441880637
1.708948103779072E12,2.0978260869565215,-6.521739130434782,2.4565217391304346,3.637237982420681,29.447044664269047,33.08428264668973,482.00947189443974,584.0902810204365
1.7089481037986035E12,2.0760869565217392,-6.543478260869565,2.5652173913043477,4.441682629785851,30.024378302619255,34.46606093240511,481.9980045554644,584.0224145677585
1.7089481038181353E12,2.0652173913043477,-6.5,2.4239130434782608,3.910362590594601,28.908151854056342,32.818514444650944,482.00817370512175,584.1269909294833
1.7089481038376667E12,2.1630434782608696,-6.445652173913043,2.152173913043478,3.692483150062937,29.113770617696122,32.80625376775906,482.01812648989284,584.0843670468769
1.7089481038571985E12,2.108695652173913,-6.456521739130435,2.630434782608696,3.678275189194106,29.173992177723907,32.852267366918014,482.01257312447706,584.0092163096924
1.70894810387673E12,1.9782608695652173,-6.554347826086956,2.8043478260869565,3.6735151616949038,29.20017232896952,32.87368749066442,482.0139434354238,583.989094375264
1.7089481038962617E12,2.043478260869565,-6.467391304347826,2.358695652173913,3.685992203473116,29.2008214236285,32.88681362710162,482.0125010028483,583.9857046587116
1.7089481039157932E12,2.0543478260869565,-6.434782608695652,2.4456521739130435,3.686352811616995,29.207384491847098,32.89373730346409,482.01019311072747,583.9829640368181
1.708948103935325E12,2.0543478260869565,-6.478260869565217,2.5978260869565215,3.689670406540681,29.219428803852654,32.909099210393336,481.99807667709314,583.9777712795462
1.7089481039548564E12,2.0,-6.5,2.5978260869565215,3.7015704752886864,29.23767557593293,32.939246051221616,482.00319731273623,583.9998404979516
1.708948103974388E12,2.0217391304347827,-6.532608695652174,2.619565217391304,3.708205665136059,29.24142590062927,32.94963156576533,481.9982209203507,584.000345349353
1.7089481039939197E12,2.0869565217391304,-6.554347826086956,2.608695652173913,3.7264524372163343,29.239406495023548,32.96585893223988,482.0126452461059,584.045060759194
1.7089481040134512E12,2.130434782608696,-6.576086956521739,2.369565217391304,3.748665898879278,29.230896142828005,32.97956204170728,482.0172610303475,584.0531383816169
1.708948104032983E12,2.108695652173913,-6.521739130434782,2.4347826086956523,3.7646047788387276,29.235728291955983,33.00033307079471,482.01920831432443,584.0493159352918
1.7089481040525144E12,2.0652173913043477,-6.434782608695652,2.5,3.75205561543174,29.250296860968692,33.00235247640043,482.02036226038484,584.0188084863196
1.7089481040720461E12,2.130434782608696,-6.413043478260869,2.4782608695652173,3.7202499771416164,29.221953060859807,32.94220303800142,482.0215883280741,584.0006338358681
1.7089481040915776E12,2.0760869565217392,-6.434782608695652,2.608695652173913,3.716571774074051,29.188777111622944,32.905348885696995,482.02634835557325,584.0071247824579
1.7089481041111094E12,2.0,-6.489130434782608,2.5978260869565215,3.709648097711575,29.17392005609513,32.883568153806706,482.01754951686263,584.0161399860549
1.7089481041306409E12,2.0652173913043477,-6.489130434782608,2.4891304347826084,3.706907475818095,29.175939461700853,32.88284693751895,482.01920831432443,584.0332328120747
1.7089481041501726E12,2.119565217391304,-6.478260869565217,2.5,3.712028111461176,29.15149022954586,32.86351834100704,482.01870346292304,584.0198903107513
1.708948104169704E12,2.152173913043478,-6.467391304347826,2.5652173913043477,3.7001280427131706,29.16108240617304,32.86121044888621,482.0223095443618,584.0197460674938
1.7089481041892358E12,2.1956521739130435,-6.489130434782608,2.467391304347826,3.699046218281534,29.169232150224705,32.86827836850624,482.02295863902077,584.0098654043514
1.7089481042087673E12,2.152173913043478,-6.489130434782608,2.5978260869565215,3.696521961274381,29.17413642098146,32.87065838225584,482.02180469296036,584.006115079655
1.708948104228299E12,2.130434782608696,-6.5,2.608695652173913,3.7080614218785075,29.16829456905062,32.87635599092913,482.0249780446265,584.0025811198451
1.7089481042478306E12,2.108695652173913,-6.5,2.5760869565217392,3.712316597976279,29.17053033954267,32.88284693751895,482.0238240985661,583.9964507813992
1.7089481042673623E12,2.0978260869565215,-6.5,2.641304347826087,3.7064026244166643,29.23630526498619,32.942707889402854,482.0199295306122,584.0025811198451
1.7089481042868938E12,2.119565217391304,-6.478260869565217,2.5760869565217392,3.7325106540335007,29.236377386614965,32.968888040648466,482.02281439576325,583.9975326058308
1.7089481043064253E12,2.130434782608696,-6.445652173913043,2.5869565217391304,3.7597726297107497,29.259312064565666,33.019084694276415,482.02267015250567,583.99875867352
1.708948104325957E12,2.0978260869565215,-6.456521739130435,2.619565217391304,3.743401019978645,29.163606663180193,32.90700768315884,482.0309641398149,584.0268861087425
1.7089481043454885E12,2.108695652173913,-6.478260869565217,2.5978260869565215,3.7247215181257154,29.122930064550648,32.84765158267636,482.0305314100423,584.026092770826
1.7089481043650203E12,2.0760869565217392,-6.478260869565217,2.630434782608696,3.733159748692483,29.08982623694256,32.82298598563504,482.0285841260653,584.021260621698
1.7089481043845518E12,2.0760869565217392,-6.467391304347826,2.641304347826087,3.649642902570117,29.07698858702047,32.72663148959059,482.0315411128451,584.0487389622616
1.7089481044040835E12,2.0652173913043477,-6.478260869565217,2.5869565217391304,3.95954954141969,29.545130079404125,33.504679620823815,482.02779078814876,584.0907858718379
1.708948104423615E12,2.0760869565217392,-6.456521739130435,2.630434782608696,4.508034528259579,29.673867186768916,34.181901715028495,482.0234634904222,583.9725064006456
1.7089481044431467E12,2.0760869565217392,-6.445652173913043,2.5978260869565215,3.8062910802711345,28.830765346379923,32.63705642665106,482.02101135504387,584.1551904863346
1.7089481044626782E12,2.130434782608696,-6.456521739130435,2.630434782608696,3.7615756704301444,28.99065899737585,32.75223466780599,482.02692532860345,584.0809773303243
1.70894810448221E12,2.0652173913043477,-6.445652173913043,2.8043478260869565,3.7542913859237896,29.071795829748613,32.8260872156724,482.0321902075041,584.0346031230215
1.7089481045017415E12,2.0543478260869565,-6.467391304347826,2.684782608695652,3.760998697399938,29.088167439480717,32.849166136880655,482.0243289499675,584.0136878506765
1.7089481045212732E12,2.043478260869565,-6.380434782608695,2.5978260869565215,3.7763606043291813,29.061626680091226,32.83798728442041,482.02908897746676,584.0139763371917
1.7089481045408047E12,2.108695652173913,-6.380434782608695,2.5652173913043477,3.7615756704301444,29.098264467509328,32.85984013793947,482.03125262633,584.0196018242361
1.7089481045603364E12,2.0543478260869565,-6.423913043478261,2.891304347826087,3.778740618078783,29.106414211560992,32.885154829639774,482.0261319906869,584.0208278919254
1.708948104579868E12,2.0652173913043477,-6.478260869565217,2.7717391304347827,3.7904243219404608,29.124228253868612,32.91465257580907,482.0297380721257,584.0310691632116
1.7089481045993994E12,2.0217391304347827,-6.576086956521739,2.7065217391304346,3.795833444098645,29.133459822351913,32.92929326645056,482.0330556670494,584.0304200685525
1.7089481046189312E12,2.0652173913043477,-6.630434782608695,2.5978260869565215,3.8349233668951235,29.111967576976728,32.94689094387185,482.0328393021631,584.0390025423768
1.7089481046384626E12,2.108695652173913,-6.532608695652174,2.543478260869565,3.85829077461848,29.111967576976724,32.970258351595206,482.0339211265947,584.0532105032457
1.7089481046579944E12,2.0978260869565215,-6.423913043478261,2.608695652173913,3.878917560448356,29.127329483905967,33.006247044354325,482.03500295102634,584.0563838549118
1.708948104677526E12,2.0978260869565215,-6.315217391304348,2.7282608695652173,3.8173978111026066,29.14139320151725,32.958791012619855,482.03803205943495,584.0311412848403
1.7089481046970576E12,2.108695652173913,-6.358695652173913,2.7282608695652173,3.8041995530366366,29.102447521978323,32.90664707501496,482.03767145129103,584.0160678644262
1.708948104716589E12,2.0978260869565215,-6.456521739130435,2.782608695652174,3.791001294970667,29.07338250558168,32.864383800552346,482.03442597799614,584.0121011748435
1.7089481047361208E12,2.032608695652174,-6.510869565217391,2.6739130434782608,3.7788848613363344,29.072733410922698,32.85161827225903,482.03045928841345,584.0065478094277
1.7089481047556523E12,2.0978260869565215,-6.489130434782608,2.630434782608696,3.7725381580040644,29.082253465921102,32.854791623925166,482.0370944782608,584.0123896613586
1.708948104775184E12,2.0652173913043477,-6.467391304347826,2.608695652173913,3.780687902055729,29.06667519410553,32.84736309616126,482.0375272080335,584.0191690944636
1.7089481047947156E12,2.0760869565217392,-6.413043478260869,2.652173913043478,3.792804335690062,29.06963218088534,32.8624365165754,482.03384900496593,584.0104423773817
1.7089481048142473E12,2.0760869565217392,-6.445652173913043,2.7391304347826084,3.8025407555747934,29.07352674883923,32.876067504414024,482.0349308293976,583.9986144302624
1.7089481048337788E12,2.0978260869565215,-6.467391304347826,2.6739130434782608,3.7963382955000755,29.06754065365084,32.863878949150916,482.0348587077688,583.9885895238626
1.7089481048533105E12,2.0869565217391304,-6.5,2.619565217391304,3.8122050538307497,29.068478234824926,32.880683288655675,482.03954661363923,584.0002732277243
1.708948104872842E12,2.0978260869565215,-6.478260869565217,2.717391304347826,3.8105462563689065,29.10713542784875,32.917681684217655,482.03146899121634,583.9806561446973
1.7089481048923735E12,2.0760869565217392,-6.456521739130435,2.684782608695652,3.8331924478045045,29.141321079888474,32.97451352769298,482.0311083830725,583.9662318189421
1.7089481049119053E12,2.0760869565217392,-6.434782608695652,2.6630434782608696,3.850357395453143,29.15437509469689,33.00473249015003,482.0262762339445,583.9335607211067
1.7089481049314368E12,2.0652173913043477,-6.434782608695652,2.630434782608696,3.8370148941296214,29.083191047095188,32.92020594122481,482.02454531485387,583.9461820061424
1.7089481049509685E12,2.0652173913043477,-6.445652173913043,2.652173913043478,3.825547555154271,28.98106682074867,32.80661437590294,482.0342096131098,583.9579378316329
1.7089481049705E12,2.0543478260869565,-6.445652173913043,2.652173913043478,3.8170372029587276,28.98445653730113,32.80149374025986,482.0262762339445,583.9452444249683
1.7089481049900317E12,2.0760869565217392,-6.445652173913043,2.5978260869565215,3.7019310834325654,28.947241776852824,32.64917286028539,482.0337047617084,583.9857046587116
1.7089481050095632E12,2.0760869565217392,-6.413043478260869,2.630434782608696,3.8749508708656877,29.240921049227843,33.11587192009353,482.0331277886782,583.9935659162481
1.708948105029095E12,2.0760869565217392,-6.413043478260869,2.652173913043478,4.492384134815232,29.4263457568104,33.91872989162563,482.0291610990955,583.8259552509732
1.7089481050486265E12,2.0652173913043477,-6.445652173913043,2.5543478260869565,3.9334415118028536,28.77797231411604,32.711413825918896,482.0261319906869,584.0393631505208
1.7089481050681582E12,2.141304347826087,-6.489130434782608,2.4239130434782608,3.844154935378425,28.946809047080166,32.79096398245859,482.02252590924815,583.9988307951487
1.7089481050876897E12,2.0543478260869565,-6.445652173913043,2.967391304347826,3.844082813749649,28.98957717294421,32.83365998669386,482.0215883280741,583.9427201679612
1.7089481051072214E12,2.0217391304347827,-6.510869565217391,2.967391304347826,3.851727706399883,28.99916934957139,32.850897055971274,482.01783800337773,583.9237521795932
1.708948105126753E12,2.0978260869565215,-6.532608695652174,2.380434782608696,3.861968977686045,29.011862756235928,32.873831733921975,482.0237519769373,583.9232473281917
1.7089481051462847E12,2.119565217391304,-6.5,2.5543478260869565,3.876898154842634,29.020950081461677,32.89784823630431,482.02072286852876,583.9281515989485
1.7089481051658162E12,2.0978260869565215,-6.434782608695652,2.8152173913043477,3.882740006773473,29.041432624034,32.924172630807476,482.01870346292304,583.9463262493999
1.7089481051853477E12,2.0869565217391304,-6.456521739130435,2.760869565217391,3.8887261019618635,29.060544855659586,32.94927095762145,482.01329434076484,583.9481292901194
1.7089481052048794E12,2.032608695652174,-6.456521739130435,2.760869565217391,3.9141850369197178,29.071723708119833,32.98590874503955,482.00449550205417,583.9681069812902
1.708948105224411E12,2.0217391304347827,-6.521739130434782,2.6630434782608696,3.953347081344972,29.040639286117468,32.99398636746244,482.00608217788727,583.9748142927664
1.7089481052439426E12,2.0543478260869565,-6.576086956521739,2.5,3.9667617042972694,29.03321075835356,32.99997246265083,482.0075246104628,584.0064035661702
1.708948105263474E12,2.043478260869565,-6.521739130434782,2.5760869565217392,3.9921485176263474,29.046553259677083,33.03870177730343,482.00875067815196,583.9947919839373
1.7089481052830059E12,2.0869565217391304,-6.445652173913043,2.619565217391304,3.9664010961533904,29.05686665259202,33.02326774874541,482.0060100562585,583.9632027105336
1.7089481053025374E12,2.0760869565217392,-6.434782608695652,2.543478260869565,3.9263735921828262,29.02635920361986,32.95273279580269,482.0071640023189,583.9681069812902
1.708948105322069E12,2.043478260869565,-6.467391304347826,2.619565217391304,3.9290420924475304,29.0047948366159,32.93383692906343,481.9979324338356,583.9650778728817
1.7089481053416006E12,1.9891304347826086,-6.532608695652174,2.608695652173913,3.924786916349759,28.997871160253425,32.922658076603184,482.00168275853196,583.945677154741
1.7089481053611323E12,2.0217391304347827,-6.467391304347826,2.510869565217391,3.9273111733569115,28.996140241162806,32.92345141451972,481.9985815284946,583.948562019892
1.7089481053806638E12,2.032608695652174,-6.489130434782608,2.4782608695652173,3.939283363733693,28.983807442642146,32.92309080637584,481.9976439473205,583.9528893176185
1.7089481054001956E12,2.032608695652174,-6.467391304347826,2.532608695652174,3.938273660930832,28.999529957715268,32.9378036186461,481.9973554608054,583.9517353715581
1.708948105419727E12,2.0217391304347827,-6.5,2.5760869565217392,3.9508228243378194,28.99642872767791,32.94725155201573,481.9964178796313,583.9590196560645
1.7089481054392588E12,2.043478260869565,-6.532608695652174,2.5652173913043477,3.9545731490341605,28.996645092564236,32.9512182415984,482.00132215038803,583.9678184947752
1.7089481054587903E12,2.0760869565217392,-6.489130434782608,2.532608695652174,3.9570252844125373,28.979335901658047,32.936361186070584,482.004567623683,583.9521681013308
1.708948105478322E12,2.0869565217391304,-6.5,2.4782608695652173,3.9436106614602404,29.042875056609518,32.98648571806976,482.00254821807727,583.9257715851988
1.7089481054978535E12,2.119565217391304,-6.510869565217391,2.510869565217391,3.9529143515723173,29.056794530963245,33.00970888253556,482.0051445967132,583.933777085993
1.708948105517385E12,2.119565217391304,-6.478260869565217,2.467391304347826,3.988181828043679,29.074969181414744,33.06315100945842,482.00608217788727,583.912861813648
1.7089481055369167E12,2.0978260869565215,-6.445652173913043,2.467391304347826,4.010683776221725,29.046048408275652,33.05673218449738,482.01084220538644,583.925410977055
1.7089481055564482E12,2.0978260869565215,-6.489130434782608,2.4891304347826084,3.972675677856884,28.963829751471252,32.936505429328136,482.00961613769726,583.9458213979985
1.70894810557598E12,2.0652173913043477,-6.478260869565217,2.4565217391304346,3.9667617042972694,28.906060326821844,32.872822031119114,482.0015385152744,583.9489226280359
1.7089481055955115E12,2.0543478260869565,-6.521739130434782,2.4130434782608696,3.9749114483489336,28.917022814395764,32.8919342627447,482.00377428576644,583.9363013430001
1.7089481056150432E12,2.0652173913043477,-6.521739130434782,2.4347826086956523,3.8267736228434592,28.983735321013373,32.81050894385683,482.0035579208801,583.9999126195804
1.7089481056345747E12,2.0652173913043477,-6.510869565217391,2.4456521739130435,4.428700736606209,29.590350340646545,34.019051077252755,482.00225973156216,583.9860652668555
1.7089481056541064E12,2.0652173913043477,-6.5,2.4239130434782608,4.467141564743706,28.78042444949442,33.247566014238124,482.00976038095484,583.9026926639906
1.708948105673638E12,2.0760869565217392,-6.423913043478261,2.2391304347826084,4.036575440952235,28.752873987302067,32.7894494282543,482.0088227997807,584.0650384503649
1.7089481056931697E12,2.108695652173913,-6.445652173913043,2.369565217391304,4.008087397585797,28.888606892658103,32.8966942902439,482.0052888399707,583.9310364640995
1.7089481057127012E12,1.9782608695652173,-6.510869565217391,2.8043478260869565,4.005563140578644,28.897477852997525,32.90304099357617,482.0050724750844,583.9211558009572
1.708948105732233E12,2.0543478260869565,-6.565217391304348,2.391304347826087,4.002461910541285,28.909810651518185,32.91227256205947,482.0069476374326,583.9103375566408
1.7089481057517644E12,2.0869565217391304,-6.489130434782608,2.2391304347826084,4.01695835792522,28.903680313072243,32.92063867099746,482.0098325025836,583.920578827927
1.7089481057712961E12,2.010869565217391,-6.445652173913043,2.4565217391304346,4.010178924820295,28.921638598637415,32.93181752345771,482.0017548801607,583.9226703551615
1.7089481057908276E12,2.0217391304347827,-6.489130434782608,2.4347826086956523,4.028281453643019,28.925028315189877,32.953309768832895,482.0037021641377,583.9463262493999
1.7089481058103591E12,2.0217391304347827,-6.521739130434782,2.4239130434782608,4.032176021596912,28.94024597886157,32.97242200045848,482.0023318531909,583.9439462356504
1.7089481058298909E12,2.043478260869565,-6.532608695652174,2.510869565217391,4.037296657239993,28.93952476257381,32.9768214198138,482.00290882622113,583.9517353715581
1.7089481058494224E12,2.108695652173913,-6.576086956521739,2.2717391304347827,4.065928943863981,28.92308103121293,32.98900997507691,482.00673127254623,583.9838294963633
1.708948105868954E12,2.0760869565217392,-6.565217391304348,2.3260869565217392,4.0911715139355085,28.917527665797195,33.0086991797327,481.9957687849723,583.9876519426884
1.7089481058884856E12,2.032608695652174,-6.510869565217391,2.4130434782608696,4.094416987230419,28.936495654165228,33.030912641395645,481.9967063661464,583.9781318876901
1.7089481059080173E12,2.032608695652174,-6.489130434782608,2.3369565217391304,4.083382378027723,28.90577184030674,32.98915421833446,481.99367725773783,583.9555578178832
1.7089481059275488E12,2.032608695652174,-6.456521739130435,2.391304347826087,4.059510118902936,28.877644405084183,32.93715452398712,482.00225973156216,583.9655106026544
1.7089481059470806E12,1.9782608695652173,-6.478260869565217,2.467391304347826,4.05756283492599,28.87036012057783,32.92792295550382,482.004567623683,583.9572166153451
1.708948105966612E12,2.032608695652174,-6.489130434782608,2.391304347826087,4.068669565757461,28.852041226868778,32.92071079262624,481.99511969031335,583.9656548459119
1.7089481059861438E12,2.043478260869565,-6.478260869565217,2.380434782608696,4.062611348940295,28.848363023801213,32.91097437274151,482.0003124475852,583.9596687507235
1.7089481060056753E12,2.032608695652174,-6.467391304347826,2.4347826086956523,4.071626552537269,28.837689022742396,32.90931557527966,482.00463974531175,583.96399604845
1.708948106025207E12,2.0543478260869565,-6.510869565217391,2.402173913043478,4.063116200341725,28.850743037550814,32.91385923789254,482.00701975906134,583.9593081425796
1.7089481060447385E12,2.0,-6.510869565217391,2.4456521739130435,4.061962254281313,28.851752740353675,32.91371499463499,482.0006009341003,583.9629863456472
1.7089481060642703E12,2.043478260869565,-6.532608695652174,2.467391304347826,4.060014970304366,28.854349118989603,32.91436408929397,482.0015385152744,583.9792858337505
1.7089481060838018E12,2.108695652173913,-6.576086956521739,2.380434782608696,4.070761092991959,28.831558684296454,32.90231977728841,482.0023318531909,583.9872913345446
1.7089481061033333E12,2.032608695652174,-6.58695652173913,2.4130434782608696,4.053091293941891,28.905916083564293,32.95900737750618,482.0057215697434,583.9888780103777
1.708948106122865E12,2.010869565217391,-6.576086956521739,2.5217391304347827,4.091964851852042,28.90786336754124,32.99982821939328,482.0077409753491,583.991979240415
1.7089481061423965E12,2.010869565217391,-6.554347826086956,2.467391304347826,4.107326758781285,28.91247915178289,33.01980591056417,482.01055371887134,583.9895271050367
1.7089481061619282E12,2.130434782608696,-6.478260869565217,2.4347826086956523,4.120741381733582,28.837544779484844,32.958286161218425,482.0082458267505,584.0143369453356
1.7089481061814597E12,2.0978260869565215,-6.510869565217391,2.402173913043478,4.106172812720873,28.76563951559538,32.87181232831625,482.009688259326,584.0191690944636
1.7089481062009915E12,2.0543478260869565,-6.467391304347826,2.467391304347826,4.108841312985577,28.743137567417335,32.85197888040291,482.00860643489443,584.0163563509412
1.708948106220523E12,2.043478260869565,-6.456521739130435,2.4347826086956523,4.076963553066678,28.74616667582592,32.823130228892595,482.00550520485706,584.0131108776463
1.7089481062400547E12,2.108695652173913,-6.445652173913043,2.402173913043478,4.194305443084889,29.08283043895131,33.2771358820362,482.0011779071305,584.0627305582441
1.7089481062595862E12,2.0869565217391304,-6.489130434782608,2.5,4.990888832913498,29.46832054475791,34.45920937767141,481.9982209203507,583.9963786597704
1.708948106279118E12,2.0978260869565215,-6.510869565217391,2.4130434782608696,4.55512995185017,28.62896902906526,33.18409898091543,482.00903916466706,583.9548366015955
1.7089481062986494E12,2.141304347826087,-6.510869565217391,2.1630434782608696,4.144830005744697,28.67296322261849,32.817793228363186,482.00348579925134,584.0664808829405
1.7089481063181812E12,2.0652173913043477,-6.423913043478261,2.75,4.141440289192235,28.726116863026245,32.86755715221848,482.00406277228154,584.0082066068896
1.7089481063377126E12,2.0543478260869565,-6.5,2.5978260869565215,4.140430586389374,28.730372039124017,32.87080262551339,482.0070918806901,584.0137599723054
1.7089481063572444E12,2.0978260869565215,-6.445652173913043,2.369565217391304,4.138988153813858,28.737223593857717,32.876211747671576,482.0093997728109,584.0128223911313
1.708948106376776E12,2.0543478260869565,-6.423913043478261,2.4565217391304346,4.1463445599489885,28.740541188781403,32.88688574873039,482.01343858402237,584.0146975534794
1.7089481063963074E12,2.0978260869565215,-6.434782608695652,2.4891304347826084,4.146416681577764,28.742199986243246,32.88861666782101,482.01473677334036,584.0131829992752
1.708948106415839E12,2.0217391304347827,-6.510869565217391,2.619565217391304,4.173173805853582,28.762826772073122,32.936000577926706,482.0158907194008,584.0100817692378
1.7089481064353706E12,2.0652173913043477,-6.58695652173913,2.75,4.179808995700955,28.76888498889029,32.948693984591245,482.0155301112569,584.0265255005986
1.7089481064549023E12,2.0652173913043477,-6.663043478260869,2.543478260869565,4.196973943349593,28.761744947641485,32.95871889099108,482.0060100562585,584.0491716920343
1.7089481064744338E12,2.0869565217391304,-6.663043478260869,2.282608695652174,4.238443879895673,28.72914597143483,32.9675898513305,482.0076688537203,584.0793185328625
1.7089481064939656E12,2.0978260869565215,-6.489130434782608,2.402173913043478,4.248468786295508,28.74162301321304,32.99009179950855,482.0122125163332,584.05825901726
1.708948106513497E12,2.0869565217391304,-6.391304347826087,2.4239130434782608,4.223009851337654,28.763259501845777,32.98626935318343,482.0152416247418,584.0371273800287
1.7089481065330288E12,2.0978260869565215,-6.326086956521739,2.4347826086956523,4.196613335205714,28.737728445259147,32.93434178046486,482.0146646517116,584.0130387560175
1.7089481065525603E12,2.108695652173913,-6.315217391304348,2.5869565217391304,4.195387267516526,28.7059949285978,32.90138219611433,482.02093923341505,584.0193854593498
1.708948106572092E12,2.043478260869565,-6.434782608695652,2.5760869565217392,4.200363659902056,28.701956117386356,32.90231977728841,482.0207949901575,584.019673945865
1.7089481065916235E12,2.0217391304347827,-6.467391304347826,2.5543478260869565,4.198776984068989,28.698494279205118,32.897271263274106,482.03089201818614,583.9997683763228
1.7089481066111553E12,2.0978260869565215,-6.532608695652174,2.467391304347826,4.200940632932262,28.692508184016727,32.89344881694899,482.02843988280773,584.0072690257155
1.7089481066306868E12,2.043478260869565,-6.489130434782608,2.608695652173913,4.195892118917956,28.684142075078736,32.88003419399669,482.0272859367473,584.003230214504
1.7089481066502185E12,2.119565217391304,-6.510869565217391,2.4891304347826084,4.208946133726375,28.692508184016727,32.9014543177431,482.03089201818614,584.0087835799199
1.70894810666975E12,2.119565217391304,-6.489130434782608,2.5543478260869565,4.208224917438617,28.68868573769161,32.89691065513023,482.02634835557325,584.0121732964723
1.7089481066892817E12,2.130434782608696,-6.510869565217391,2.543478260869565,4.217528607550694,28.669285019550923,32.88681362710162,482.0294495856106,584.0078459987457
1.7089481067088132E12,2.108695652173913,-6.510869565217391,2.467391304347826,4.215797688460075,28.699576103636755,32.91537379209683,482.03132474795876,583.9958016867402
1.7089481067283447E12,2.0652173913043477,-6.489130434782608,2.543478260869565,4.218610431982331,28.718111362232133,32.93672179421446,482.0334162751933,583.9893107401504
1.7089481067478765E12,2.0652173913043477,-6.456521739130435,2.532608695652174,4.256618530347172,28.75085458169634,33.00747311204351,482.0255550176567,583.9627699807609
1.708948106767408E12,2.0652173913043477,-6.445652173913043,2.5217391304347827,4.271259220988658,28.7494842707496,33.02074349173826,482.02519440951284,583.9561347909134
1.7089481067869397E12,2.0652173913043477,-6.434782608695652,2.543478260869565,4.255536705915535,28.615265919597856,32.87080262551339,482.03161323447387,583.9986865518912
1.7089481068064712E12,2.0760869565217392,-6.423913043478261,2.5760869565217392,4.251425773075315,28.58281118664875,32.834236959724066,482.0238240985661,583.9973883625732
1.708948106826003E12,2.0543478260869565,-6.445652173913043,2.5978260869565215,4.25185850284797,28.55937165729662,32.81123016014459,482.0334162751933,583.9984701870048
1.7089481068455344E12,2.0652173913043477,-6.489130434782608,2.5869565217391304,4.1083364615841464,28.528287235294258,32.6366236968784,482.03702235663206,584.0604226661233
1.7089481068650662E12,2.0760869565217392,-6.510869565217391,2.630434782608696,4.791833137492316,29.26284602437568,34.054679161867995,482.0237519769373,584.0156351346535
1.7089481068845977E12,2.0652173913043477,-6.510869565217391,2.652173913043478,4.738607375455782,28.883846865158905,33.62245424061469,482.02959382886814,583.8001357078714
1.7089481069041294E12,2.0652173913043477,-6.478260869565217,2.4456521739130435,4.325278320941726,28.31862966044303,32.64390798138476,482.02295863902077,584.1001616835787
1.708948106923661E12,2.0760869565217392,-6.489130434782608,2.4565217391304346,4.2817889787899235,28.528792086695685,32.81058106548561,482.02822351792145,584.0240733652203
1.7089481069431926E12,2.0543478260869565,-6.445652173913043,2.9130434782608696,4.283880506024421,28.561679549417445,32.845560055441865,482.0337047617084,583.989743469923
1.708948106962724E12,2.0543478260869565,-6.423913043478261,2.717391304347826,4.291669641932207,28.563266225250512,32.85493586718272,482.0288726125804,583.9772664281447
1.7089481069822559E12,2.0869565217391304,-6.358695652173913,2.391304347826087,4.289505993068933,28.576969334717912,32.866475327786844,482.0327671805343,583.9761846037131
1.7089481070017874E12,2.0760869565217392,-6.358695652173913,2.641304347826087,4.30155030507449,28.589230011609796,32.890780316684285,482.03045928841345,583.9706312382974
1.7089481070213188E12,2.0217391304347827,-6.380434782608695,2.7717391304347827,4.308257616550638,28.598461580093097,32.906719196643735,482.03731084314717,583.9731554953046
1.7089481070408506E12,2.0217391304347827,-6.434782608695652,2.5978260869565215,4.332490483819305,28.589374254867344,32.92186473868665,482.0365175052306,583.9792858337505
1.708948107060382E12,2.0217391304347827,-6.489130434782608,2.630434782608696,4.357516689004504,28.582162091989765,32.93967878099427,482.0343538563674,583.9782040093189
1.7089481070799138E12,2.0760869565217392,-6.521739130434782,2.5217391304347827,4.3928562871046415,28.560886211500907,32.95374249860555,482.02678108534593,583.9896713482942
1.7089481070994453E12,2.0978260869565215,-6.478260869565217,2.532608695652174,4.411824275472674,28.554972237941293,32.96679651341397,482.0326950589055,583.9831804017044
1.708948107118977E12,2.0543478260869565,-6.445652173913043,2.5869565217391304,4.416295816456773,28.583027551535075,32.99932336799185,482.0305314100423,583.9756076306829
1.7089481071385085E12,2.043478260869565,-6.380434782608695,2.5760869565217392,4.353405756164284,28.579565713353837,32.93297146951812,482.03529143754145,583.9418547084159
1.7089481071580403E12,2.043478260869565,-6.423913043478261,2.532608695652174,4.339846889954435,28.546678250632077,32.886525140586514,482.0365175052306,583.9339934508793
1.7089481071775718E12,1.9891304347826086,-6.5,2.608695652173913,4.334437767796251,28.52352720779505,32.8579649755913,482.0351471942839,583.9257715851988
1.7089481071971035E12,2.0,-6.423913043478261,2.652173913043478,4.331552902645219,28.52727753249139,32.85883043513661,482.0321902075041,583.9194248818666
1.708948107216635E12,2.108695652173913,-6.478260869565217,2.510869565217391,4.341361444158727,28.51220411207725,32.85356555623598,482.0333441535645,583.9101933133833
1.7089481072361667E12,2.0760869565217392,-6.434782608695652,2.5543478260869565,4.351097864043458,28.534850303512847,32.88594816755631,482.0225980308769,583.9231030849342
1.7089481072556982E12,2.0652173913043477,-6.423913043478261,2.5869565217391304,4.365738554684944,28.525979343173425,32.89171789785837,482.0166840573173,583.9112030161862
1.70894810727523E12,2.0543478260869565,-6.445652173913043,2.6956521739130435,4.371580406615783,28.534706060255296,32.90628646687108,482.01004886746995,583.9196412467529
1.7089481072947615E12,2.0978260869565215,-6.510869565217391,2.652173913043478,4.371436163358231,28.53723031726245,32.90866648062068,482.02065074689995,583.9130060569056
1.708948107314293E12,2.119565217391304,-6.532608695652174,2.619565217391304,4.373888298736608,28.541773979875323,32.91566227861193,482.01899194943815,583.9099769484969
1.7089481073338247E12,2.152173913043478,-6.565217391304348,2.630434782608696,4.367469473775563,28.599831891039834,32.9673013648154,482.007452488834,583.9032696370208
1.7089481073533562E12,2.108695652173913,-6.510869565217391,2.684782608695652,4.379730150667447,28.603870702251278,32.98360085291873,482.00608217788727,583.8984374878928
1.708948107372888E12,2.108695652173913,-6.510869565217391,2.652173913043478,4.412833978275535,28.64476366576715,33.05759764404269,482.0085343132656,583.8811282969866
1.7089481073924194E12,2.130434782608696,-6.478260869565217,2.6630434782608696,4.421272208842303,28.581512997330783,33.00278520617309,482.002620339706,583.8949756497116
1.7089481074119512E12,2.130434782608696,-6.489130434782608,2.6739130434782608,4.396318125285879,28.483860311968364,32.880178437254244,482.0012500287593,583.9239685444795
1.7089481074314827E12,2.0978260869565215,-6.478260869565217,2.630434782608696,4.394298719680157,28.456958944434994,32.85125766411515,482.00492823182685,583.929594031524
1.7089481074510144E12,2.0869565217391304,-6.423913043478261,2.5869565217391304,4.302992737650006,28.45349710625376,32.756489843903765,482.011635543303,583.9572887369739
1.708948107470546E12,2.0760869565217392,-6.423913043478261,2.5217391304347827,4.365666433056168,28.663010437847426,33.028676870903595,482.01062584050015,583.984262226136
1.7089481074900776E12,2.0652173913043477,-6.489130434782608,2.5869565217391304,5.0771463009293445,29.279650363880442,34.356796664809785,482.0092555295534,583.909327853838
1.7089481075096091E12,2.0543478260869565,-6.5,2.510869565217391,4.643839555244393,28.24679651818234,32.890636073426734,482.0113470567879,583.96399604845
1.7089481075291409E12,2.119565217391304,-6.489130434782608,2.282608695652174,4.423580100963128,28.38837127546922,32.81195137643235,482.01199615144685,583.9875076994309
1.7089481075486724E12,2.119565217391304,-6.467391304347826,2.7065217391304346,4.429494074522743,28.4801821089008,32.90967618342354,482.0065870292887,583.9019714477029
1.708948107568204E12,1.934782608695652,-6.619565217391304,2.8369565217391304,4.434109858764393,28.486096082460413,32.92020594122481,482.01055371887134,583.8822101214183
1.7089481075877356E12,2.043478260869565,-6.543478260869565,2.3369565217391304,4.441826873043403,28.488115488066136,32.92994236110954,482.01271736773464,583.8881240949779
1.708948107607267E12,2.043478260869565,-6.489130434782608,2.2717391304347827,4.436706237400322,28.50722771969172,32.94393395709204,482.00579369137216,583.8849507433117
1.7089481076267988E12,1.967391304347826,-6.467391304347826,2.619565217391304,4.448173576375673,28.516026558402366,32.96420013477804,482.00730824557644,583.8991587041806
1.7089481076463303E12,2.0,-6.543478260869565,2.510869565217391,4.459857280237351,28.52864784343813,32.98850512367548,482.00932765118216,583.8960574741433
1.708948107665862E12,1.9782608695652173,-6.554347826086956,2.4891304347826084,4.461299712812867,28.540043060784704,33.00134277359757,482.00254821807727,583.9125012055041
1.7089481076853936E12,1.9891304347826086,-6.521739130434782,2.5652173913043477,4.499524176064035,28.51407927442542,33.013603450489455,482.00391852902396,583.9319740452736
1.7089481077049253E12,2.043478260869565,-6.554347826086956,2.3478260869565215,4.51402062344797,28.496842205148006,33.010862828595975,482.0054330832283,583.9497159659525
1.7089481077244568E12,2.0652173913043477,-6.510869565217391,2.369565217391304,4.53594559859581,28.514656247455626,33.050601846051435,482.0053609615995,583.9351473969397
1.7089481077439885E12,2.0543478260869565,-6.489130434782608,2.4456521739130435,4.514525474849401,28.5397545742696,33.054280049119,481.9998797178125,583.9046399479676
1.70894810776352E12,2.0760869565217392,-6.467391304347826,2.4239130434782608,4.482936201445604,28.513430179766438,32.99636638121204,481.9963457580025,583.8841574053953
1.7089481077830518E12,2.0652173913043477,-6.478260869565217,2.4456521739130435,4.481565890498864,28.4917936911337,32.973359581632565,481.9973554608054,583.8691561066099
1.7089481078025833E12,2.032608695652174,-6.478260869565217,2.4565217391304346,4.477238592772316,28.49251490742146,32.969753500193775,481.99713909591907,583.8625209167625
1.708948107822115E12,2.032608695652174,-6.434782608695652,2.4130434782608696,4.475651916939249,28.493236123709217,32.968888040648466,481.9991585015248,583.8623045518762
1.7089481078416465E12,2.0543478260869565,-6.445652173913043,2.369565217391304,4.476445254855783,28.489125190868997,32.96557044572478,481.99742758243417,583.8610063625582
1.7089481078611782E12,2.0543478260869565,-6.478260869565217,2.4565217391304346,4.482647714930501,28.507155598062944,32.989803312993445,481.999735474555,583.854659659226
1.7089481078807097E12,2.0760869565217392,-6.5,2.4130434782608696,4.477238592772316,28.50895863878234,32.986197231554655,482.0006009341003,583.8636027411941
1.7089481079002415E12,2.0760869565217392,-6.510869565217391,2.4782608695652173,4.493826567390748,28.502467692192518,32.996294259583266,482.0024039748197,583.8559578485439
1.708948107919773E12,2.0760869565217392,-6.543478260869565,2.467391304347826,4.482864079816828,28.505136192457222,32.98800027227405,482.00103366387293,583.847880226121
1.7089481079393044E12,2.0978260869565215,-6.554347826086956,2.402173913043478,4.493538080875645,28.497347056549437,32.99088513742508,482.00067305572907,583.8420383741902
1.7089481079588362E12,2.0978260869565215,-6.521739130434782,2.4239130434782608,4.489499269664201,28.56442017131092,33.05391944097512,482.00132215038803,583.8320134677904
1.7089481079783677E12,2.0978260869565215,-6.489130434782608,2.4456521739130435,4.504789054964668,28.574445077710756,33.079234132675424,481.9964900012601,583.8251619130566
1.7089481079978994E12,2.0978260869565215,-6.5,2.4347826086956523,4.531906787384366,28.593629430965123,33.12553621834949,482.0003124475852,583.8066266544613
1.708948108017431E12,2.0543478260869565,-6.478260869565217,2.467391304347826,4.540994112610115,28.507444084578047,33.04843819718816,482.00139427201685,583.8214115883603
1.7089481080369626E12,2.0652173913043477,-6.489130434782608,2.4782608695652173,4.513804258561643,28.43546669905981,32.94927095762145,481.9982930419795,583.8255946428293
1.7089481080564941E12,2.0869565217391304,-6.478260869565217,2.4347826086956523,4.520223083522688,28.42176358959241,32.941986673115096,481.99980759618376,583.8249455481703
1.708948108076026E12,2.0978260869565215,-6.467391304347826,2.4891304347826084,4.470026429894737,28.44044309144534,32.910469521340076,481.9991585015248,583.8294892107832
1.7089481080955574E12,2.108695652173913,-6.489130434782608,2.4565217391304346,4.5919841041546,28.74371454044754,33.33569864460214,481.9987257717521,583.9103375566408
1.708948108115089E12,2.108695652173913,-6.521739130434782,2.4782608695652173,5.428667119582548,29.103385103152405,34.532052222734954,481.9970669742903,583.8413171579024
1.7089481081346206E12,2.0652173913043477,-6.478260869565217,2.402173913043478,4.711850251179964,28.146475332555216,32.85832558373518,482.0026924613348,583.9651499945104
1.7089481081541523E12,2.119565217391304,-6.467391304347826,2.1630434782608696,4.551091140638726,28.369403287101186,32.92049442773991,482.0031251911075,583.8789646481234
1.7089481081736838E12,2.032608695652174,-6.434782608695652,2.630434782608696,4.536738936512344,28.432798198795105,32.96953713530745,482.0001682043276,583.8193200611258
1.7089481081932156E12,1.9891304347826086,-6.543478260869565,2.510869565217391,4.5375322744288775,28.443904929626576,32.98143720405545,481.9975718256917,583.7981163022657
1.708948108212747E12,2.0217391304347827,-6.478260869565217,2.2717391304347827,4.538253490716635,28.45191043042069,32.990163921137324,481.99439847402556,583.7895338284414
1.7089481082322786E12,2.032608695652174,-6.434782608695652,2.358695652173913,4.550946897381174,28.458834106783165,33.00978100416434,481.99483120379824,583.7755422324589
1.7089481082518103E12,1.967391304347826,-6.456521739130435,2.467391304347826,4.54553777522299,28.48804336643736,33.03358114166035,481.9972833391766,583.7680415830662
1.7089481082713418E12,2.010869565217391,-6.532608695652174,2.4456521739130435,4.557654208857323,28.4986452458674,33.05629945472472,481.99389362262417,583.7725131240503
1.7089481082908735E12,1.9891304347826086,-6.565217391304348,2.5217391304347827,4.558303303516305,28.52042597775769,33.07872928127399,481.9931002847076,583.7770567866631
1.708948108310405E12,2.0,-6.565217391304348,2.4891304347826084,4.584122846618039,28.51040107135786,33.0945239179759,481.99144148724577,583.8203297639286
1.7089481083299368E12,2.0760869565217392,-6.608695652173913,2.25,4.60157628078178,28.4956882590876,33.09726453986938,481.9947590821695,583.8178776285503
1.7089481083494683E12,2.043478260869565,-6.532608695652174,2.369565217391304,4.629198864602907,28.515449585372167,33.14464844997507,481.9931002847076,583.8209067369588
1.708948108369E12,2.0760869565217392,-6.478260869565217,2.467391304347826,4.606480551538533,28.52843147855181,33.13491203009034,481.98999905467025,583.7857113821162
1.7089481083885315E12,2.0869565217391304,-6.456521739130435,2.369565217391304,4.587368319912949,28.50665074666152,33.09401906657447,481.9951918119421,583.7769846650344
1.7089481084080632E12,2.0217391304347827,-6.489130434782608,2.4239130434782608,4.564505763591023,28.48133605496121,33.04584181855223,481.99389362262417,583.7894617068126
1.7089481084275947E12,2.032608695652174,-6.489130434782608,2.4347826086956523,4.564577885219799,28.487899123179808,33.052477008399606,482.00009608269886,583.7883077607522
1.7089481084471265E12,2.0760869565217392,-6.445652173913043,2.402173913043478,4.571717926468603,28.49576038071637,33.06747830718497,481.9988700150097,583.7918417205623
1.708948108466658E12,2.130434782608696,-6.478260869565217,2.358695652173913,4.569265791090225,28.50261193545007,33.07187772654029,481.9957687849723,583.78196105742
1.7089481084861897E12,2.0760869565217392,-6.489130434782608,2.4891304347826084,4.562558479614077,28.515016855599505,33.07757533521358,481.9972833391766,583.7889568554112
1.7089481085057212E12,2.108695652173913,-6.478260869565217,2.369565217391304,4.572078534612482,28.51746899097789,33.08954752559037,481.9975718256917,583.7801580167005
1.7089481085252527E12,2.108695652173913,-6.456521739130435,2.4239130434782608,4.573665210445549,28.50895863878234,33.082623849227886,482.0008894206154,583.7903271663579
1.7089481085447844E12,2.108695652173913,-6.5,2.4347826086956523,4.567246385484503,28.519921126356266,33.08716751184077,482.00319731273623,583.7764076920042
1.708948108564316E12,2.108695652173913,-6.521739130434782,2.4456521739130435,4.575828859308823,28.506794989919065,33.082623849227886,482.01091432701526,583.7803743815869
1.7089481085838477E12,2.0652173913043477,-6.576086956521739,2.467391304347826,4.570924588552068,28.561535306159897,33.132459894711964,482.01300585424974,583.773234340338
1.7089481086033792E12,2.0869565217391304,-6.532608695652174,2.4456521739130435,4.577487656770666,28.57293052350647,33.150418180277136,482.01004886746995,583.7764076920042
1.708948108622911E12,2.0869565217391304,-6.478260869565217,2.4565217391304346,4.6033793215011745,28.612741662590707,33.21612098409188,482.0065149076599,583.7505881489025
1.7089481086424424E12,2.0760869565217392,-6.5,2.4130434782608696,4.621409728695122,28.569757171840337,33.19116690053546,482.01033735398505,583.7720803942776
1.708948108661974E12,2.0978260869565215,-6.510869565217391,2.4130434782608696,4.574963399763513,28.4849421364,33.05990553616351,482.012933732621,583.7864325984041
1.7089481086815056E12,2.0869565217391304,-6.467391304347826,2.4347826086956523,4.574025818589428,28.46027653935868,33.03430235794811,482.01855921966546,583.7831871251092
1.7089481087010374E12,2.0978260869565215,-6.445652173913043,2.4347826086956523,4.574819156505962,28.45140557901926,33.02622473552522,482.01978528735464,583.7796531652991
1.7089481087205688E12,2.0978260869565215,-6.489130434782608,2.4782608695652173,4.490292607580734,28.572353550476258,33.06264615805699,482.02295863902077,583.8644682007395
1.7089481087401006E12,2.0978260869565215,-6.5,2.4456521739130435,5.161744971483347,29.1802667594274,34.34201173091075,482.0176216384914,583.8180218718078
1.708948108759632E12,2.0760869565217392,-6.467391304347826,2.4456521739130435,4.884076700696553,28.32173089048039,33.20580759117694,482.0218768145892,583.7538336221974
1.7089481087791638E12,2.108695652173913,-6.434782608695652,2.2717391304347827,4.621770336839001,28.292305265939866,32.914075602778865,482.02548289602794,583.8997356772109
1.7089481087986953E12,2.0652173913043477,-6.434782608695652,2.5652173913043477,4.596527766767474,28.457463795836425,33.0539915626039,482.02577138254304,583.7844853144271
1.7089481088182268E12,2.0652173913043477,-6.510869565217391,2.608695652173913,4.597681712827887,28.46799355363769,33.065675266465576,482.02166044970284,583.7680415830662
1.7089481088377585E12,2.0869565217391304,-6.456521739130435,2.4891304347826084,4.606336308280982,28.477513608636094,33.083849916917075,482.02483380136897,583.7659500558317
1.70894810885729E12,2.0869565217391304,-6.423913043478261,2.369565217391304,4.60482175407669,28.482273636135304,33.08709539021199,482.0259156258006,583.7650124746576
1.7089481088768218E12,2.0978260869565215,-6.423913043478261,2.5217391304347827,4.616433336309592,28.509175003668673,33.125608339978264,482.02663684208835,583.7568627306059
1.7089481088963533E12,2.032608695652174,-6.478260869565217,2.543478260869565,4.6239339857022745,28.519272031697284,33.14320601739956,482.0253386527704,583.7638585285972
1.708948108915885E12,2.0652173913043477,-6.543478260869565,2.4782608695652173,4.646147447365219,28.521796288704433,33.16794373606965,482.02101135504387,583.7859277470026
1.7089481089354165E12,2.0652173913043477,-6.5978260869565215,2.5760869565217392,4.661004502893031,28.521796288704433,33.182800791597465,482.02605986905814,583.8078527221504
1.7089481089549482E12,2.0652173913043477,-6.5978260869565215,2.510869565217391,4.69735380379603,28.499654948670265,33.197008752466296,482.0262762339445,583.8113145603317
1.7089481089744797E12,2.119565217391304,-6.554347826086956,2.369565217391304,4.705431426218919,28.512997449993787,33.218428876212705,482.02779078814876,583.8108097089303
1.7089481089940115E12,2.0652173913043477,-6.456521739130435,2.467391304347826,4.681991896866786,28.54343277733717,33.22542467420396,482.02836776117897,583.7935726396529
1.708948109013543E12,2.0760869565217392,-6.4021739130434785,2.467391304347826,4.6475898799407345,28.542639439420636,33.19022931936137,482.0286562476941,583.7737391917395
1.7089481090330747E12,2.119565217391304,-6.413043478260869,2.543478260869565,4.62076063403614,28.50528043571478,33.12604106975092,482.02966595049696,583.772296759164
1.7089481090526062E12,2.043478260869565,-6.456521739130435,2.608695652173913,4.6129714981283545,28.490134893671865,33.10310639180022,482.0330556670494,583.7632094339382
1.708948109072138E12,2.0760869565217392,-6.456521739130435,2.5,4.609726024833444,28.502467692192525,33.11219371702597,482.02418470671,583.767464610036
1.7089481090916694E12,2.0869565217391304,-6.467391304347826,2.4347826086956523,4.609726024833444,28.505857408744987,33.11558343357843,482.0267089637171,583.7566463657197
1.7089481091112012E12,2.0217391304347827,-6.456521739130435,2.543478260869565,4.610086632977323,28.5183344505232,33.12842108350052,482.02793503140634,583.7743161647697
1.7089481091307327E12,2.0543478260869565,-6.489130434782608,2.5543478260869565,4.612322403469372,28.517901720750544,33.130224124219914,482.0309641398149,583.765517326059
1.7089481091502642E12,2.119565217391304,-6.510869565217391,2.5652173913043477,4.606841159682412,28.537590925406334,33.144432085088745,482.0319738426178,583.7325577417085
1.708948109169796E12,2.119565217391304,-6.521739130434782,2.532608695652174,4.609149051803238,28.518767180295853,33.12791623209909,482.0230307606496,583.7444578104565
1.7089481091893274E12,2.130434782608696,-6.510869565217391,2.5217391304347827,4.60482175407669,28.548841899495358,33.153663653572046,482.02930534235304,583.7229655650814
1.7089481092088591E12,2.0978260869565215,-6.489130434782608,2.5543478260869565,4.622203066611656,28.577113577975467,33.19931664458712,482.0306756532998,583.7072430500082
1.7089481092283906E12,2.0978260869565215,-6.445652173913043,2.5543478260869565,4.622275188240431,28.638489084063664,33.260764272304094,482.0315411128451,583.6755816549756
1.7089481092479224E12,2.0652173913043477,-6.434782608695652,2.5869565217391304,4.642397122668878,28.546750372260856,33.189147494929735,482.03017080189835,583.7096230637578
1.7089481092674539E12,2.0652173913043477,-6.445652173913043,2.5760869565217392,4.619606687975727,28.492226420906363,33.11183310888209,482.03406536985227,583.7082527528111
1.7089481092869856E12,2.119565217391304,-6.478260869565217,2.5652173913043477,4.6129714981283545,28.465974148031968,33.07894564616032,482.02678108534593,583.7216673757633
1.708948109306517E12,2.108695652173913,-6.445652173913043,2.641304347826087,4.6016484024105555,28.45804076886663,33.059689171277185,482.03017080189835,583.7184940240973
1.7089481093260488E12,2.1630434782608696,-6.489130434782608,2.5543478260869565,4.471613105727805,28.46921962132688,32.94083272705468,482.02692532860345,583.7944380991981
1.7089481093455803E12,2.130434782608696,-6.467391304347826,2.5652173913043477,5.313200391912507,29.174857637269216,34.48805802918172,482.02281439576325,583.7109212530758
1.708948109365112E12,2.108695652173913,-6.478260869565217,2.5760869565217392,4.90073679694376,28.65370674773535,33.55444354467911,482.0285841260653,583.5259292752659
1.7089481093846436E12,2.1630434782608696,-6.423913043478261,2.402173913043478,4.632660702784145,28.32685152612347,32.95951222890761,482.0289447342092,583.8095115196123
1.7089481094041753E12,2.0760869565217392,-6.380434782608695,2.543478260869565,4.621121242180019,28.472176608106693,33.09329785028671,482.0278629097775,583.7074594148945
1.7089481094237068E12,2.043478260869565,-6.445652173913043,2.8260869565217392,4.626169756194324,28.48184090636265,33.10801066255697,482.02281439576325,583.6896453725869
1.7089481094432383E12,2.130434782608696,-6.456521739130435,2.543478260869565,4.6270352157396335,28.49280339393657,33.1198386096762,482.03017080189835,583.6776731822101
1.70894810946277E12,2.1630434782608696,-6.380434782608695,2.3152173913043477,4.634031013730886,28.504847705942122,33.13887871967301,482.02908897746676,583.6620949103946
1.7089481094823015E12,2.152173913043478,-6.369565217391304,2.619565217391304,4.639512257517846,28.524032059196482,33.16354431671433,482.02692532860345,583.6577676126681
1.7089481095018333E12,2.0978260869565215,-6.423913043478261,2.630434782608696,4.656100232136278,28.522301140105863,33.17840137224214,482.02678108534593,583.6618785455082
1.7089481095213647E12,2.0869565217391304,-6.478260869565217,2.5978260869565215,4.674779733989207,28.52922481646834,33.20400455045755,482.0272859367473,583.6641143160003
1.7089481095408965E12,2.0543478260869565,-6.565217391304348,2.5760869565217392,4.6925216546680515,28.51739686934911,33.20991852401716,482.0241125850812,583.6642585592579
1.708948109560428E12,2.108695652173913,-6.5978260869565215,2.391304347826087,4.714230264929565,28.498284637723525,33.21251490265309,482.0251222878841,583.6721198167944
1.7089481095799597E12,2.0869565217391304,-6.478260869565217,2.4456521739130435,4.7394728350010915,28.499294340526387,33.23876717552748,482.02396834182366,583.6778174254677
1.7089481095994912E12,2.0869565217391304,-6.413043478260869,2.4565217391304346,4.730673996290445,28.51977688309871,33.250450879389156,482.0196410440971,583.6628882483111
1.708948109619023E12,2.108695652173913,-6.380434782608695,2.5,4.665548165505906,28.53658122260347,33.20212938810938,482.0223095443618,583.6353377861187
1.7089481096385544E12,2.130434782608696,-6.391304347826087,2.5217391304347827,4.656388718651381,28.511122287645616,33.167511006297,482.02043438201366,583.6307941235059
1.7089481096580862E12,2.0543478260869565,-6.467391304347826,2.641304347826087,4.63345404070068,28.511771382304598,33.14522542300528,482.02281439576325,583.6142782705163
1.7089481096776177E12,2.108695652173913,-6.489130434782608,2.5652173913043477,4.643262582214187,28.512348355334804,33.15561093754899,482.0181986115216,583.6251686364614
1.7089481096971494E12,2.130434782608696,-6.532608695652174,2.5,4.646724420395425,28.530811492301407,33.17753591269683,482.0085343132656,583.6328856507404
1.708948109716681E12,2.108695652173913,-6.5,2.4891304347826084,4.658263880999551,28.531316343702837,33.18958022470239,482.0118519081893,583.6367080970655
1.7089481097362124E12,2.0869565217391304,-6.478260869565217,2.5543478260869565,4.653720218386677,28.541124885216345,33.19484510360302,482.01502525985546,583.6382226512698
1.7089481097557441E12,2.0978260869565215,-6.521739130434782,2.6739130434782608,4.663817246415287,28.54343277733717,33.20725002375246,482.01286161099216,583.6385832594136
1.7089481097752756E12,2.152173913043478,-6.532608695652174,2.630434782608696,4.665259678990803,28.53744668214878,33.20270636113958,482.0176216384914,583.6390881108151
1.7089481097948074E12,2.1739130434782608,-6.543478260869565,2.532608695652174,4.649681407175232,28.579349348467513,33.229030755642746,482.01740527360505,583.6333905021418
1.7089481098143389E12,2.130434782608696,-6.521739130434782,2.5543478260869565,4.645281987819909,28.606539202515986,33.251821190335896,482.01113069190154,583.625601366234
1.7089481098338706E12,2.141304347826087,-6.5,2.5,4.679107031715755,28.63423390796589,33.313340939681645,482.01120281353036,583.6067054994948
1.708948109853402E12,2.108695652173913,-6.510869565217391,2.5869565217391304,4.696632587508272,28.604303432023936,33.30093601953221,482.01206827307567,583.6262504608931
1.7089481098729338E12,2.0869565217391304,-6.478260869565217,2.532608695652174,4.670163949747557,28.5072998413205,33.17746379106806,482.01149130004546,583.6332462588842
1.7089481098924653E12,2.0543478260869565,-6.456521739130435,2.5217391304347827,4.67095728766409,28.464675958714007,33.1356332463781,482.01177978656057,583.6455790574049
1.708948109911997E12,2.0543478260869565,-6.456521739130435,2.5217391304347827,4.665043314104476,28.453929836026415,33.11897315013089,482.01199615144685,583.6312268532786
1.7089481099315286E12,2.043478260869565,-6.478260869565217,2.4782608695652173,4.521377029583101,28.514872612341954,33.03624964192505,482.00730824557644,583.6732737628548
1.7089481099510603E12,2.0543478260869565,-6.5,2.4891304347826084,5.082266936572426,29.13959016079786,34.22185709737028,482.00161063690314,583.6263947041506
1.7089481099705918E12,2.043478260869565,-6.489130434782608,2.5,5.084286342178148,28.44642918663373,33.530715528811875,482.0078130969779,583.515615882351
1.7089481099901235E12,2.0652173913043477,-6.478260869565217,2.3369565217391304,4.694468938644998,28.324832120517744,33.01930105916274,482.0058658130009,583.7168352266355
1.708948110009655E12,2.152173913043478,-6.5,2.4130434782608696,4.68004461288984,28.466551121062178,33.14659573395202,482.0044233804254,583.5932908765425
1.7089481100291865E12,2.010869565217391,-6.565217391304348,2.880434782608696,4.667206962967749,28.488908825982673,33.15611578895042,482.0052888399707,583.6030272964272
1.7089481100487183E12,2.0869565217391304,-6.576086956521739,2.4347826086956523,4.674130639330225,28.495760380716373,33.1698910200466,482.00096154224417,583.587016294839
1.7089481100682498E12,2.0869565217391304,-6.434782608695652,2.2065217391304346,4.679900369632288,28.50318890848028,33.18308927811257,482.00081729898665,583.6036042694574
1.7089481100877815E12,2.0217391304347827,-6.369565217391304,2.4891304347826084,4.676510653079826,28.52475327548424,33.20126392856407,482.0029809478499,583.6062727697221
1.708948110107313E12,2.010869565217391,-6.467391304347826,2.510869565217391,4.68415554573006,28.535932127944488,33.22008767367455,481.9985094068658,583.6097346079033
1.7089481101268447E12,2.010869565217391,-6.532608695652174,2.510869565217391,4.691079222092536,28.54220670964798,33.23328593174052,481.99389362262417,583.6115376486227
1.7089481101463762E12,2.010869565217391,-6.554347826086956,2.532608695652174,4.708388412998726,28.53384060070999,33.242229013708716,481.99454271728314,583.6212740685074
1.708948110165908E12,2.0978260869565215,-6.58695652173913,2.369565217391304,4.714590873073444,28.527710262264048,33.24230113533749,481.9912251223594,583.6336789886569
1.7089481101854395E12,2.0869565217391304,-6.565217391304348,2.369565217391304,4.747334092537653,28.49583250234515,33.2431665948828,481.9943263523968,583.658416707327
1.7089481102049712E12,2.043478260869565,-6.532608695652174,2.467391304347826,4.747911065567859,28.54119700684512,33.28910807241298,482.00110578550175,583.6378620431259
1.7089481102245027E12,2.043478260869565,-6.456521739130435,2.391304347826087,4.709253872544036,28.550356453699646,33.25961032624368,481.99995183944134,583.6206970954772
1.7089481102440344E12,2.0543478260869565,-6.423913043478261,2.4239130434782608,4.6829294780408715,28.528575721809357,33.21150519985023,482.0044233804254,583.614999486804
1.708948110263566E12,1.9891304347826086,-6.478260869565217,2.467391304347826,4.691439830236415,28.513213814880114,33.20465364511653,482.0011779071305,583.6075709590401
1.7089481102830977E12,2.032608695652174,-6.434782608695652,2.391304347826087,4.692810141183155,28.513141693251338,33.205951834434494,481.99396574425293,583.5970412012388
1.7089481103026292E12,2.043478260869565,-6.456521739130435,2.369565217391304,4.686751924365988,28.520786585901572,33.20753851026756,481.9951918119421,583.5935072414288
1.708948110322161E12,2.0217391304347827,-6.467391304347826,2.4891304347826084,4.68603070807823,28.52302235639362,33.20905306447185,481.9941821091393,583.6016569854804
1.7089481103416924E12,2.0543478260869565,-6.521739130434782,2.380434782608696,4.685453735048024,28.527710262264048,33.21316399731207,482.00319731273623,583.612114621653
1.7089481103612239E12,2.0543478260869565,-6.489130434782608,2.467391304347826,4.6959113712205145,28.52511388362812,33.221025254848634,482.00391852902396,583.6048303371466
1.7089481103807556E12,2.0652173913043477,-6.5,2.4565217391304346,4.685958586449455,28.532037559990595,33.21799614644005,481.9998797178125,583.5996375798748
1.708948110400287E12,2.0543478260869565,-6.510869565217391,2.4130434782608696,4.683073721298423,28.531749073475492,33.214822794773916,482.0006009341003,583.5847805243469
1.7089481104198188E12,2.032608695652174,-6.510869565217391,2.4239130434782608,4.678385815427997,28.60473616179659,33.28312197722459,481.998437285237,583.5751162260909
1.7089481104393503E12,2.043478260869565,-6.489130434782608,2.4130434782608696,4.698435628227667,28.614472581681323,33.31290820990899,482.00009608269886,583.5646585899185
1.708948110458882E12,2.010869565217391,-6.489130434782608,2.4130434782608696,4.713725413528135,28.630555704898324,33.34428111842646,481.999086379896,583.5611967517373
1.7089481104784136E12,2.0217391304347827,-6.489130434782608,2.4347826086956523,4.690718613948657,28.523310842908725,33.21402945685738,481.9982209203507,583.5978345391553
1.7089481104979453E12,2.010869565217391,-6.510869565217391,2.467391304347826,4.680621585920046,28.495904623973924,33.17652620989397,481.9988700150097,583.6077152022976
1.7089481105174768E12,2.032608695652174,-6.510869565217391,2.4347826086956523,4.6811985589502525,28.463305647767267,33.14450420671752,482.00189912341824,583.597978782413
1.7089481105370085E12,2.043478260869565,-6.5,2.4239130434782608,4.571501561582275,28.465180810115434,33.03668237169771,481.9956245417148,583.6082921753278
1.70894811055654E12,2.0543478260869565,-6.510869565217391,2.467391304347826,5.004303455865795,29.07056976205942,34.074873217925216,481.9925954333062,583.6419729759662
1.7089481105760718E12,2.0543478260869565,-6.489130434782608,2.4565217391304346,5.572694012247803,28.95257877738223,34.52527278963003,481.9985094068658,583.4946284883772
1.7089481105956033E12,2.0652173913043477,-6.456521739130435,2.3260869565217392,4.740626781061504,28.295190131090894,33.0358169121524,482.00009608269886,583.7376783773516
1.708948110615135E12,2.130434782608696,-6.413043478260869,2.260869565217391,4.68740101902497,28.45537226860193,33.1427732876269,482.0015385152744,583.6232213524844
1.7089481106346665E12,2.010869565217391,-6.478260869565217,2.7717391304347827,4.675861558420844,28.483066974051834,33.15892853247268,482.0011779071305,583.587016294839
1.708948110654198E12,2.043478260869565,-6.608695652173913,2.5,4.676582774708602,28.48775487992226,33.16433765463086,482.00363004250886,583.5958872551784
1.7089481106737297E12,2.0652173913043477,-6.543478260869565,2.282608695652174,4.684011302472508,28.494173704883305,33.178185007355815,482.0058658130009,583.5930023900273
1.7089481106932612E12,2.0543478260869565,-6.423913043478261,2.391304347826087,4.683506451071078,28.504847705942122,33.1883541570132,482.00218760993334,583.5934351198
1.708948110712793E12,2.010869565217391,-6.467391304347826,2.510869565217391,4.685453735048024,28.5210029507879,33.206456685835924,481.99894213663845,583.601801228738
1.7089481107323245E12,2.043478260869565,-6.532608695652174,2.467391304347826,4.692449533039276,28.53571576305816,33.22816529609744,482.00961613769726,583.6189661763866
1.7089481107518562E12,2.0543478260869565,-6.543478260869565,2.5652173913043477,4.699878060803183,28.53982669589838,33.23970475670156,482.0085343132656,583.6243031769161
1.7089481107713877E12,2.0760869565217392,-6.58695652173913,2.4347826086956523,4.714158143300789,28.520786585901572,33.23494472920236,482.0104094756138,583.642982678769
1.7089481107909194E12,2.0978260869565215,-6.576086956521739,2.358695652173913,4.75029107931746,28.5096798550701,33.25997093438756,482.0110585702728,583.6710379923628
1.708948110810451E12,2.0869565217391304,-6.489130434782608,2.402173913043478,4.755411714960541,28.536509100974694,33.291920815935235,482.0122125163332,583.6523584905099
1.7089481108299827E12,2.0869565217391304,-6.434782608695652,2.391304347826087,4.70831629136995,28.54516369642779,33.25347998779774,482.01740527360505,583.6111049188501
1.7089481108495142E12,2.119565217391304,-6.413043478260869,2.4239130434782608,4.687112532509867,28.530523005786304,33.21763553829617,482.01300585424974,583.5752604693486
1.708948110869046E12,2.0652173913043477,-6.478260869565217,2.4782608695652173,4.681847653609235,28.502179205677418,33.184026859286654,482.00997674584113,583.5917042007094
1.7089481108885774E12,2.032608695652174,-6.456521739130435,2.4782608695652173,4.671173652550418,28.510256828100307,33.181430480650725,482.01055371887134,583.5767750235528
1.7089481109081091E12,2.0869565217391304,-6.445652173913043,2.3260869565217392,4.675500950276965,28.506145895260087,33.18164684553705,482.0153858679993,583.5722313609399
1.7089481109276406E12,2.0760869565217392,-6.445652173913043,2.4456521739130435,4.6698754632324535,28.520570221015245,33.1904456842477,482.0130779758785,583.5717986311673
1.708948110947172E12,2.0869565217391304,-6.521739130434782,2.4347826086956523,4.6540808265305555,28.537013952376125,33.19109477890668,482.0143040435677,583.5785059426435
1.7089481109667039E12,2.119565217391304,-6.521739130434782,2.4347826086956523,4.66223057058222,28.522445383363415,33.184675953945636,482.0136549489087,583.5819677808247
1.7089481109862354E12,2.108695652173913,-6.532608695652174,2.532608695652174,4.669010003687144,28.5096798550701,33.178689858757245,482.01899194943815,583.576414415409
1.708948111005767E12,2.130434782608696,-6.532608695652174,2.380434782608696,4.6726160851259335,28.51552170700094,33.188137792126874,482.01415980031015,583.5811744429082
1.7089481110252986E12,2.108695652173913,-6.521739130434782,2.4347826086956523,4.65537901584852,28.570911117900746,33.226290133749266,482.0250501662553,583.5688416443875
1.7089481110448303E12,2.0760869565217392,-6.510869565217391,2.5,4.69425257375867,28.60098583710025,33.29523841085892,482.0278629097775,583.5536239807158
1.7089481110643618E12,2.0869565217391304,-6.456521739130435,2.4347826086956523,4.7003829122046135,28.61916048755175,33.31954339975636,482.0271416934898,583.5399208712483
1.7089481110838936E12,2.0978260869565215,-6.467391304347826,2.4782608695652173,4.6921610465241725,28.544370358511255,33.23653140503543,482.0259156258006,583.5731689421141
1.708948111103425E12,2.0978260869565215,-6.445652173913043,2.467391304347826,4.674130639330225,28.464387472198904,33.13851811152913,482.0269974502322,583.564802833176
1.7089481111229568E12,2.119565217391304,-6.445652173913043,2.510869565217391,4.671966990466951,28.453569227882536,33.12553621834949,482.02605986905814,583.5622064545402
1.7089481111424883E12,2.130434782608696,-6.489130434782608,2.510869565217391,4.529671016892316,28.42414360334201,32.953814620234326,482.02843988280773,583.6016569854804
1.70894811116202E12,2.130434782608696,-6.467391304347826,2.5,4.727356401366759,28.751431554726548,33.478787956093306,482.02678108534593,583.6187498115004
1.7089481111815515E12,2.108695652173913,-6.467391304347826,2.510869565217391,5.290482078848133,28.905627597049193,34.196109675897326,482.0264925988308,583.4072170743009
1.7089481112010833E12,2.108695652173913,-6.5,2.4130434782608696,4.751589268635424,28.272255453140193,33.02384472177562,482.03601265382923,583.640097813618
1.7089481112206147E12,2.1739130434782608,-6.489130434782608,2.467391304347826,4.674419125845328,28.36478750285953,33.03920662870486,482.03204596424655,583.6428384355114
1.7089481112401462E12,2.0978260869565215,-6.4021739130434785,2.7065217391304346,4.670668801148987,28.46186321519175,33.13253201634074,482.0342096131098,583.5598264407905
1.708948111259678E12,2.0869565217391304,-6.445652173913043,2.630434782608696,4.674274882587777,28.46943598621321,33.14371086880099,482.0326950589055,583.5568694540107
1.7089481112792095E12,2.130434782608696,-6.434782608695652,2.5,4.674851855617983,28.489774285527982,33.164626141145966,482.0269974502322,583.5508112371936
1.7089481112987412E12,2.141304347826087,-6.456521739130435,2.4347826086956523,4.683722815957405,28.490207015300637,33.17392983125804,482.02807927466387,583.5450415068915
1.7089481113182727E12,2.0869565217391304,-6.478260869565217,2.7391304347826084,4.671534260694297,28.545884912715547,33.217419173409844,482.0267089637171,583.550666993936
1.7089481113378044E12,2.0978260869565215,-6.565217391304348,2.630434782608696,4.693603479099688,28.53059512741508,33.22419860651477,482.0269974502322,583.5531191293144
1.708948111357336E12,2.0760869565217392,-6.5978260869565215,2.5978260869565215,4.698579871485219,28.542495196163085,33.2410750676483,482.0258435041718,583.564514346661
1.7089481113768677E12,2.0978260869565215,-6.663043478260869,2.510869565217391,4.7267794283365525,28.528431478551806,33.25521090688836,482.0256992609143,583.57929928056
1.7089481113963992E12,2.130434782608696,-6.543478260869565,2.4347826086956523,4.750651687461339,28.50931924692622,33.25997093438756,482.0267089637171,583.5877375111268
1.708948111415931E12,2.108695652173913,-6.478260869565217,2.4565217391304346,4.757286877308712,28.532398168134474,33.289685045443186,482.02843988280773,583.5756931991211
1.7089481114354624E12,2.141304347826087,-6.380434782608695,2.5543478260869565,4.709109629286484,28.561895914303772,33.271005543590256,482.02966595049696,583.5478542504137
1.7089481114549941E12,2.130434782608696,-6.369565217391304,2.5978260869565215,4.658768732400982,28.54768795343494,33.206456685835924,482.026420477202,583.5270110996976
1.7089481114745256E12,2.0652173913043477,-6.4021739130434785,2.608695652173913,4.651484447894627,28.522733869878518,33.174218317773146,482.026420477202,583.5139570848891
1.7089481114940574E12,2.0543478260869565,-6.423913043478261,2.608695652173913,4.6513402046370755,28.510617436244186,33.16195764088126,482.03089201818614,583.5184286258732
1.7089481115135889E12,2.119565217391304,-6.532608695652174,2.5217391304347827,4.647373515054407,28.52424842408281,33.17162193913722,482.0274301800049,583.5145340579193
1.7089481115331206E12,2.0869565217391304,-6.434782608695652,2.4891304347826084,4.646003204107667,28.54328853407962,33.189291738187286,482.0269974502322,583.5115049495107
1.708948111552652E12,2.0543478260869565,-6.434782608695652,2.608695652173913,4.654297191416883,28.551221913244955,33.20551910466184,482.02129984155897,583.510134638564
1.7089481115721836E12,2.0978260869565215,-6.456521739130435,2.630434782608696,4.653864461644228,28.54054791218614,33.19441237383037,482.0238962201949,583.4919599881125
1.7089481115917153E12,2.141304347826087,-6.456521739130435,2.5760869565217392,4.652205664182385,28.540403668928587,33.19260933311097,482.0183428547791,583.5027061108001
1.7089481116112468E12,2.0978260869565215,-6.456521739130435,2.5869565217391304,4.637060122139469,28.582378456876096,33.219438579015566,482.0170446654612,583.4846757036062
1.7089481116307786E12,2.0543478260869565,-6.423913043478261,2.5760869565217392,4.672111233724503,28.605745864599452,33.277857098323956,482.0244010715963,583.4677271208438
1.70894811165031E12,2.0543478260869565,-6.4021739130434785,2.5978260869565215,4.667928179255507,28.654139477508007,33.322067656763515,482.02238166599057,583.4455136591808
1.7089481116698418E12,2.0652173913043477,-6.423913043478261,2.5978260869565215,4.675140342133086,28.599182796380855,33.27432313851394,482.0256271392855,583.4543124978916
1.7089481116893733E12,2.043478260869565,-6.434782608695652,2.619565217391304,4.642685609183981,28.49684220514801,33.13952781433199,482.0214440848165,583.4727035132294
1.708948111708905E12,2.0760869565217392,-6.478260869565217,2.630434782608696,4.631578878352508,28.479172406097945,33.11075128445045,482.0224537876194,583.4519324841419
1.7089481117284365E12,2.0543478260869565,-6.489130434782608,2.608695652173913,4.548639005260349,28.466046269660744,33.01468527492109,482.0244010715963,583.4814302303113
1.7089481117479683E12,2.0869565217391304,-6.5,2.619565217391304,4.609365416689565,28.620314433612165,33.22967985030173,482.01653981405974,583.5169140716689
1.7089481117674998E12,2.0543478260869565,-6.532608695652174,2.5869565217391304,5.363108559025354,29.014603378129408,34.377711937154764,482.01812648989284,583.3658192593837
1.7089481117870315E12,2.0869565217391304,-6.467391304347826,2.5,4.759306282914435,28.413830210427076,33.17313649334151,482.0243289499675,583.4228674677453
1.708948111806563E12,2.0543478260869565,-6.532608695652174,2.5869565217391304,4.634103135359662,28.33276549968308,32.966868635042744,482.02014589549856,583.5528306427992
1.7089481118260947E12,2.0869565217391304,-6.413043478260869,2.793478260869565,4.625809148050445,28.507083476434175,33.13289262448462,482.01956892246835,583.4341184418344
1.7089481118456262E12,2.010869565217391,-6.5,2.934782608695652,4.629920080890665,28.50874227389602,33.13866235478668,482.02663684208835,583.401735830514
1.7089481118651577E12,2.0869565217391304,-6.5,2.358695652173913,4.643839555244393,28.520353856128917,33.16419341137331,482.01798224663526,583.4003655195672
1.7089481118846895E12,2.141304347826087,-6.467391304347826,2.391304347826087,4.652205664182385,28.526339951317308,33.178545615499694,482.0176216384914,583.382407234002
1.708948111904221E12,2.0869565217391304,-6.445652173913043,2.760869565217391,4.653359610242798,28.55728013006212,33.21063974030492,482.0143040435677,583.3921436538868
1.7089481119237527E12,2.0760869565217392,-6.489130434782608,2.5760869565217392,4.6630239084987535,28.573507496536674,33.23653140503543,482.0161792059159,583.3768538685863
1.7089481119432842E12,2.0760869565217392,-6.489130434782608,2.652173913043478,4.685597978305576,28.57458932096831,33.26018729927389,482.0171889087187,583.3961103434694
1.708948111962816E12,2.0869565217391304,-6.532608695652174,2.6739130434782608,4.708532656256278,28.560669846614584,33.26920250287086,482.01257312447706,583.4013752223701
1.7089481119823474E12,2.119565217391304,-6.58695652173913,2.5217391304347827,4.730746117919221,28.553962535138435,33.284708653057656,482.0112749351591,583.4335414688042
1.7089481120018792E12,2.108695652173913,-6.543478260869565,2.510869565217391,4.736948577993939,28.572281428847486,33.309230006841425,482.01055371887134,583.4288535629337
1.7089481120214106E12,2.130434782608696,-6.456521739130435,2.5869565217391304,4.7072344669383135,28.59276397141981,33.299998438358124,482.0060100562585,583.4119049801714
1.7089481120409424E12,2.130434782608696,-6.456521739130435,2.5543478260869565,4.652999002098919,28.593701552593895,33.246700554692815,482.0038464073952,583.3921436538868
1.7089481120604739E12,2.141304347826087,-6.489130434782608,2.630434782608696,4.641315298237241,28.576536604945257,33.2178519031825,482.00831794837933,583.3748344629806
1.7089481120800056E12,2.108695652173913,-6.489130434782608,2.630434782608696,4.629920080890665,28.582306335247324,33.21222641613799,482.0052888399707,583.370507165254
1.708948112099537E12,2.1630434782608696,-6.456521739130435,2.4565217391304346,4.638574676343761,28.58281118664875,33.22138586299251,482.0076688537203,583.3674780568455
1.7089481121190688E12,2.0652173913043477,-6.413043478260869,2.543478260869565,4.648166852970941,28.577762672634446,33.22592952560539,482.00377428576644,583.3729593006325
1.7089481121386003E12,2.0760869565217392,-6.445652173913043,2.4891304347826084,4.649753528804008,28.587931822291832,33.23768535109584,482.0132222191361,583.3816138960856
1.7089481121581318E12,2.043478260869565,-6.478260869565217,2.5652173913043477,4.657831151226897,28.594855498654308,33.252686649881205,482.0125010028483,583.3812532879416
1.7089481121776636E12,2.0543478260869565,-6.532608695652174,2.630434782608696,4.661942084067117,28.581008145929356,33.242950229996474,482.01199615144685,583.3749787062382
1.708948112197195E12,2.0869565217391304,-6.576086956521739,2.5652173913043477,4.654585677931986,28.64159031410102,33.29617599203301,482.00875067815196,583.3712283815419
1.7089481122167268E12,2.0978260869565215,-6.565217391304348,2.4782608695652173,4.677664599140239,28.658466775234555,33.336131374374794,482.01372707053747,583.3539191906357
1.7089481122362583E12,2.119565217391304,-6.478260869565217,2.5,4.6925216546680515,28.67894931780688,33.37147097247493,482.01177978656057,583.3314893640863
1.70894811225579E12,2.130434782608696,-6.456521739130435,2.4891304347826084,4.703628385499524,28.658322531977003,33.36195091747653,482.007452488834,583.3483658252198
1.7089481122753215E12,2.0760869565217392,-6.434782608695652,2.5652173913043477,4.672904571641037,28.538384263322865,33.2112888349639,482.00391852902396,583.3732477871475
1.7089481122948533E12,2.0543478260869565,-6.445652173913043,2.543478260869565,4.667206962967749,28.520786585901572,33.18799354886932,482.0071640023189,583.3646653133233
1.7089481123143848E12,2.0543478260869565,-6.456521739130435,2.5,4.632949189299248,28.518695058667078,33.151644247966324,482.0071640023189,583.3654586512398
1.7089481123339165E12,2.043478260869565,-6.445652173913043,2.5,4.515967907424916,28.549635237411884,33.0656031448368,482.00608217788727,583.4249589949798
1.708948112353448E12,2.0543478260869565,-6.478260869565217,2.543478260869565,5.4724449482494535,29.35710899318564,34.829553941435094,482.0008894206154,583.330984512685
1.7089481123729797E12,2.0760869565217392,-6.5,2.510869565217391,5.119121088876854,28.5344175737402,33.65353866261705,482.006803394175,583.2633344248933
1.7089481123925112E12,2.119565217391304,-6.456521739130435,2.217391304347826,4.674635490731656,28.47902816284039,33.153663653572046,482.00334155599376,583.4125540748304
1.708948112412043E12,2.130434782608696,-6.423913043478261,2.5217391304347827,4.656821448424036,28.542278831276757,33.199100279700794,482.00637066440237,583.350601595712
1.7089481124315745E12,2.0,-6.576086956521739,2.8043478260869565,4.658191759370776,28.544875209912686,33.20306696928346,482.0071640023189,583.3385572837063
1.708948112451106E12,2.108695652173913,-6.510869565217391,2.391304347826087,4.659129340544861,28.545524304571668,33.20465364511653,482.0106979621289,583.3300469315109
1.7089481124706377E12,2.0869565217391304,-6.456521739130435,2.2282608695652173,4.654297191416883,28.569540806954006,33.22383799837089,482.01214039470443,583.3149735110967
1.7089481124901692E12,2.032608695652174,-6.445652173913043,2.5543478260869565,4.6513402046370755,28.601274323615353,33.25261452825243,482.00788521860665,583.3403603244258
1.708948112509701E12,2.0,-6.467391304347826,2.4782608695652173,4.651989299296058,28.621756866187678,33.273746165483736,482.0069476374326,583.3250705391254
1.7089481125292324E12,2.010869565217391,-6.532608695652174,2.510869565217391,4.6616535975520135,28.62067504175604,33.282328639308055,482.00492823182685,583.3604101372255
1.7089481125487642E12,2.0760869565217392,-6.521739130434782,2.5217391304347827,4.674996098875535,28.610650135356206,33.28564623423174,482.00168275853196,583.367333813588
1.7089481125682957E12,2.119565217391304,-6.543478260869565,2.3478260869565215,4.6880501136839525,28.59975976941106,33.287809883095015,482.00420701553907,583.3840660314639
1.7089481125878274E12,2.0978260869565215,-6.554347826086956,2.358695652173913,4.701608979893802,28.60509676994047,33.30670574983427,482.00348579925134,583.4013031007413
1.708948112607359E12,2.0978260869565215,-6.510869565217391,2.4239130434782608,4.69598349284929,28.63921030035142,33.33519379320071,482.0006009341003,583.3582464883622
1.7089481126268906E12,2.108695652173913,-6.467391304347826,2.369565217391304,4.66086025963548,28.634161786337113,33.295022045972594,482.00449550205417,583.3333645264345
1.708948112646422E12,2.0978260869565215,-6.445652173913043,2.4456521739130435,4.646508055509098,28.614400460052547,33.260908515561646,482.0056494481146,583.3244214444663
1.7089481126659539E12,2.0217391304347827,-6.532608695652174,2.467391304347826,4.641315298237241,28.62327142039197,33.26458671862921,482.0029809478499,583.3416585137437
1.7089481126854854E12,2.0652173913043477,-6.423913043478261,2.3369565217391304,4.64492137967603,28.62327142039197,33.268192800068,482.00420701553907,583.3250705391254
1.708948112705017E12,2.108695652173913,-6.445652173913043,2.380434782608696,4.645931082478891,28.62976236698179,33.27569344946068,482.0050003534556,583.3278832826476
1.7089481127245486E12,2.0760869565217392,-6.478260869565217,2.4565217391304346,4.62811704017127,28.64901884186493,33.2771358820362,482.0077409753491,583.32420507958
1.7089481127440803E12,2.0978260869565215,-6.510869565217391,2.358695652173913,4.63395889210211,28.64757640928941,33.28153530139152,482.0024039748197,583.3185795925355
1.7089481127636118E12,2.0543478260869565,-6.478260869565217,2.5,4.626818850853306,28.647720652546965,33.27453950340027,482.0057215697434,583.3188680790506
1.7089481127831433E12,2.119565217391304,-6.521739130434782,2.4239130434782608,4.620688512407364,28.689406953979372,33.310095466386734,482.00492823182685,583.3133147136349
1.708948112802675E12,2.0760869565217392,-6.543478260869565,2.4130434782608696,4.628189161800046,28.742416351129577,33.37060551292962,482.0047118669405,583.3080498347342
1.7089481128222065E12,2.0543478260869565,-6.543478260869565,2.467391304347826,4.655955988878726,28.753523081961045,33.40947907083977,482.0052888399707,583.2976643201905
1.7089481128417383E12,2.0652173913043477,-6.554347826086956,2.4239130434782608,4.64715715016808,28.694960319395104,33.342117469563185,482.0092555295534,583.3392063783654
1.7089481128612698E12,2.0760869565217392,-6.543478260869565,2.380434782608696,4.627251580625961,28.626516893686883,33.25376847431284,482.00225973156216,583.3407209325696
1.7089481128808015E12,2.032608695652174,-6.565217391304348,2.391304347826087,4.62126548543757,28.591321538844298,33.212587024281866,482.00463974531175,583.34894279825
1.708948112900333E12,2.043478260869565,-6.521739130434782,2.402173913043478,4.603739929645053,28.578916618694862,33.182656548339914,482.0038464073952,583.3491591631364
1.7089481129198647E12,2.0760869565217392,-6.5,2.467391304347826,4.4693052136069795,28.602428269675762,33.07173348328274,482.0037021641377,583.4176747104734
1.7089481129393962E12,2.0869565217391304,-6.532608695652174,2.4347826086956523,5.426936200491929,29.4036995653748,34.83063576586673,482.0001682043276,583.3394948648805
1.708948112958928E12,2.0217391304347827,-6.510869565217391,2.4347826086956523,5.134987847207529,28.604159188766385,33.739147035973915,482.0091112862958,583.2729266015205
1.7089481129784595E12,2.119565217391304,-6.423913043478261,2.2282608695652173,4.649753528804008,28.541773979875327,33.191527508679336,482.01055371887134,583.4225789812302
1.7089481129979912E12,2.108695652173913,-6.369565217391304,2.4782608695652173,4.629847959261889,28.593629430965123,33.22347739022701,482.0068755158038,583.3614919616571
1.7089481130175227E12,2.0652173913043477,-6.434782608695652,2.641304347826087,4.622707918013086,28.59622580960105,33.218933727614136,482.0057215697434,583.3529816094615
1.7089481130370544E12,2.108695652173913,-6.445652173913043,2.369565217391304,4.635257081420074,28.599543404524734,33.23480048594481,482.01084220538644,583.3556501097263
1.708948113056586E12,2.0978260869565215,-6.445652173913043,2.369565217391304,4.631650999981284,28.61375136539357,33.24540236537485,482.01271736773464,583.3527652445753
1.7089481130761174E12,2.0760869565217392,-6.413043478260869,2.4456521739130435,4.632011608125163,28.62363202853585,33.25564363666101,482.0076688537203,583.3780078146467
1.7089481130956492E12,2.0652173913043477,-6.532608695652174,2.5,4.627972796913719,28.63596482705651,33.26393762397023,482.0086785565232,583.3722380843446
1.7089481131151807E12,2.0543478260869565,-6.58695652173913,2.510869565217391,4.640594081949483,28.638705448949988,33.27929953089947,482.0091112862958,583.4194777511929
1.7089481131347124E12,2.0760869565217392,-6.619565217391304,2.4891304347826084,4.65674932679526,28.620963528271144,33.277712855066405,482.01214039470443,583.4289256845625
1.708948113154244E12,2.130434782608696,-6.630434782608695,2.282608695652174,4.675428828648189,28.599182796380855,33.274611625029046,482.00817370512175,583.4475330647866
1.7089481131737756E12,2.141304347826087,-6.521739130434782,2.3260869565217392,4.6923774114105,28.59240336327593,33.28478077468643,482.00997674584113,583.4602264714512
1.7089481131933071E12,2.108695652173913,-6.467391304347826,2.391304347826087,4.673409423042467,28.623127177134418,33.296536600176886,482.01214039470443,583.43260388763
1.7089481132128389E12,2.0652173913043477,-6.434782608695652,2.402173913043478,4.638141946571106,28.600769472213923,33.23891141878503,482.0085343132656,583.4104625475959
1.7089481132323704E12,2.0978260869565215,-6.413043478260869,2.467391304347826,4.618741228430418,28.598750066608204,33.21749129503862,482.01091432701526,583.3904848564249
1.708948113251902E12,2.0543478260869565,-6.521739130434782,2.4782608695652173,4.613404227901009,28.585696051799786,33.199100279700794,482.0106979621289,583.3931533566897
1.7089481132714336E12,2.0760869565217392,-6.456521739130435,2.358695652173913,4.606480551538533,28.596009444714724,33.202489996253256,482.01033735398505,583.3795944904798
1.7089481132909653E12,2.0869565217391304,-6.467391304347826,2.4130434782608696,4.60294659172852,28.60242826967577,33.20537486140429,482.0071640023189,583.3913503159703
1.7089481133104968E12,2.0543478260869565,-6.5,2.4782608695652173,4.593787144873994,28.607981635091505,33.2017687799655,482.0112749351591,583.385292099153
1.7089481133300286E12,2.0978260869565215,-6.532608695652174,2.369565217391304,4.585709522451106,28.628319934406278,33.21402945685738,482.0148088949691,583.3736805169202
1.70894811334956E12,2.0978260869565215,-6.510869565217391,2.4565217391304346,4.593498658358891,28.615049554711533,33.20854821307042,482.0174773952338,583.3741132466929
