Shimmer_6D72_TimestampSync_Unix_CAL,Shimmer_6D72_Accel_LN_X_CAL,Shimmer_6D72_Accel_LN_Y_CAL,Shimmer_6D72_Accel_LN_Z_CAL,Shimmer_6D72_ECG_LA-RA_24BIT_CAL,Shimmer_6D72_ECG_LL-LA_24BIT_CAL,Shimmer_6D72_ECG_LL-RA_24BIT_CAL,Shimmer_6D72_ECG_RESP_24BIT_CAL,Shimmer_6D72_ECG_Vx-RL_24BIT_CAL
ms,m/(s^2),m/(s^2),m/(s^2),mV,mV,mV,mV,mV
1.7103257400523054E12,1.8478260869565217,-5.032608695652174,7.173913043478261,0.5197805785871242,37.789641951279876,38.309422529867,498.1073800453401,24.02515697779143
1.7103257400718374E12,1.858695652173913,-5.0,7.184782608695652,0.5056447393470692,37.814668156465075,38.320312895812144,498.115457667763,23.898944127433793
1.7103257400913691E12,1.826086956521739,-5.021739130434782,7.217391304347826,0.5199248218446758,37.795483803210715,38.31540862505539,498.1245449929887,24.204234982041715
1.7103257401109011E12,1.7934782608695652,-5.021739130434782,7.141304347826087,0.5244684844575506,37.83904526699129,38.36351375144884,498.10146607178046,23.8196824574092
1.7103257401304329E12,1.8152173913043477,-5.043478260869565,7.228260869565217,0.5228818086244832,37.92039846425038,38.443280272874865,498.12216497923913,23.0329076090941
1.7103257401499648E12,1.8369565217391304,-5.065217391304348,7.293478260869565,0.5285072956689949,37.8968146916407,38.425321987309694,498.1023315313258,22.81769666882714
1.7103257401694966E12,1.8695652173913042,-5.130434782608695,7.293478260869565,0.5215114976777432,37.78581950495476,38.3073310026325,498.1136546270436,23.359041614418224
1.7103257401890283E12,1.8152173913043477,-5.076086956521739,7.228260869565217,0.49432164362927006,37.77932855836494,38.27365020199421,498.1169722219673,24.042538290326394
1.7103257402085603E12,1.75,-5.032608695652174,7.184782608695652,0.4917973866221174,37.79317591108989,38.28497329771201,498.11798192477016,25.0461828763703
1.710325740228092E12,1.75,-4.945652173913043,7.1521739130434785,0.4829264262826951,37.79750320881644,38.28042963509913,498.1295213853743,25.51309830106477
1.710325740247624E12,1.75,-4.913043478260869,7.1521739130434785,0.520213308359779,37.69465776618216,38.21487107454194,498.1329832235555,25.694700562322208
1.7103257402671558E12,1.7717391304347825,-4.880434782608695,7.184782608695652,0.6926561227626947,38.655317861475694,39.347973984238386,498.12577106067795,25.750089973222018
1.7103257402866877E12,1.7826086956521738,-4.891304347826087,7.217391304347826,0.26273909363020587,38.8793276404533,39.14206673408351,498.12692500673836,25.67154951948518
1.7103257403062195E12,1.7717391304347825,-4.956521739130435,7.380434782608695,0.32937947861903655,37.94989621041968,38.27927568903872,498.13997902154676,26.100889575587463
1.7103257403257515E12,1.7065217391304348,-5.0,7.173913043478261,0.48451310211576254,37.91837905864466,38.40289216076042,498.1249777227614,26.400338578264545
1.7103257403452832E12,1.7282608695652173,-4.891304347826087,7.141304347826087,0.5031204823399166,37.88253460914309,38.38565509148301,498.12548257416285,26.083724627938825
1.7103257403648152E12,1.7608695652173914,-5.043478260869565,7.173913043478261,0.48891252147108577,37.90878688201748,38.397699403488566,498.13500262916125,26.240661292154943
1.710325740384347E12,1.8152173913043477,-5.010869565217392,7.239130434782608,0.499875009045006,37.896381961868045,38.39625697091305,498.1324062505253,26.567444392138054
1.710325740403879E12,1.8369565217391304,-5.0,7.304347826086956,0.5244684844575506,37.91188811205484,38.43635659651239,498.13139654772243,26.98812985278724
1.7103257404234106E12,1.8478260869565217,-5.043478260869565,7.304347826086956,0.5176169297238505,37.95047318344989,38.46809011317374,498.1458208734776,26.94665991624116
1.7103257404429426E12,1.8152173913043477,-5.108695652173913,7.282608695652174,0.5528122845664364,37.98941886298881,38.54223114755525,498.15043665771924,26.474119004502178
1.7103257404624744E12,1.8369565217391304,-5.021739130434782,7.239130434782608,0.596734356490893,38.024614217831406,38.6213485743223,498.16024519923275,25.83757350892705
1.7103257404820063E12,1.8478260869565217,-5.010869565217392,7.260869565217391,0.6527728620496824,38.10026980641721,38.75304266846689,498.16377915904275,25.46319013395192
1.710325740501538E12,1.8695652173913042,-4.913043478260869,7.141304347826087,0.6588310788668489,38.129118457927525,38.78794953679437,498.1705585921477,25.087869177802705
1.71032574052107E12,1.8478260869565217,-4.913043478260869,7.228260869565217,0.620173885843025,38.068824776270965,38.68899866211399,498.14834513048476,24.664443095260037
1.7103257405406018E12,1.8152173913043477,-4.934782608695652,7.271739130434782,0.5590868662699302,37.9974964854117,38.55658335168163,498.13824810245615,24.290420328428787
1.7103257405601338E12,1.8043478260869565,-4.945652173913043,7.239130434782608,0.5289400254416496,37.90943597667646,38.43837600211811,498.1351468724188,23.952242011099102
1.7103257405796655E12,1.8043478260869565,-4.978260869565217,7.293478260869565,0.4971343871515259,37.864504201949146,38.36163858910067,498.16053368574785,23.408517051758416
1.7103257405991975E12,1.8043478260869565,-5.032608695652174,7.260869565217391,0.5173284432087474,37.84164164562722,38.35897008883597,498.16125490203564,23.472633179740093
1.7103257406187292E12,1.7282608695652173,-5.054347826086956,7.163043478260869,0.5173284432087474,37.83341977994678,38.35074822315553,498.15728821245295,23.354570073434125
1.7103257406382612E12,1.7934782608695652,-4.923913043478261,7.195652173913043,0.5252618223740844,37.82332275191817,38.34858457429225,498.1633464292701,23.41926317444601
1.710325740657793E12,1.8804347826086956,-5.065217391304348,7.282608695652174,0.5184102676403842,37.81373057529099,38.33214084293137,498.15937973968744,22.723794308161057
1.710325740677325E12,1.7391304347826086,-5.0,7.173913043478261,0.5253339440028602,37.79245469480213,38.31778863880499,498.1600288343464,22.41280584487985
1.7103257406968567E12,1.7391304347826086,-4.9021739130434785,7.391304347826087,0.5079526314678945,37.808682061276684,38.31663469274458,498.1681785783981,22.175886294351375
1.7103257407163887E12,1.7608695652173914,-4.967391304347826,7.33695652173913,0.5011731983629701,37.819644548850604,38.320817747213574,498.1761119575634,22.41309433139495
1.7103257407359204E12,1.7934782608695652,-4.9021739130434785,7.33695652173913,0.5193478488144695,37.812288142715474,38.33163599152994,498.17373194381383,22.545870249971184
1.7103257407554524E12,1.7717391304347825,-5.0,7.315217391304348,0.5280024442675644,37.78978619453743,38.31778863880499,498.1663034160499,22.381360814733604
1.7103257407749841E12,1.6630434782608696,-4.9021739130434785,7.217391304347826,0.5093950640434104,37.80074868211135,38.31014374615476,498.1689719163146,23.106615913702957
1.710325740794516E12,1.7391304347826086,-4.891304347826087,7.271739130434782,0.5194199704432453,37.80788872336015,38.327308693803396,498.19479145941636,22.67475160059352
1.7103257408140479E12,1.7608695652173914,-4.945652173913043,7.3478260869565215,0.5103326452174957,37.839838604907825,38.35017125012532,498.1975320813098,22.851377469465433
1.7103257408335798E12,1.717391304347826,-4.913043478260869,7.282608695652174,0.49900954949969645,37.84402165937682,38.34303120887652,498.18382897184244,22.68145891206967
1.7103257408531116E12,1.717391304347826,-4.934782608695652,7.315217391304348,0.4992980360147996,37.792743181317235,38.292041217332034,498.1997678518019,22.681386790440893
1.7103257408726436E12,1.7282608695652173,-4.913043478260869,7.217391304347826,0.47167545219367174,37.7258143098133,38.197489762006974,498.1967387433933,22.53274411353399
1.7103257408921753E12,1.75,-4.934782608695652,7.239130434782608,0.4595590185593389,37.72408339072268,38.18364240928202,498.2223419216087,22.521348896187416
1.710325740911707E12,1.7282608695652173,-4.9021739130434785,7.260869565217391,0.4510486663637956,37.736055581099464,38.18710424746326,498.2164279480491,22.410425831130247
1.710325740931239E12,1.7391304347826086,-4.913043478260869,7.217391304347826,0.5150926727166978,37.69018622519806,38.20527889791476,498.20258059532415,21.487918077459106
1.7103257409507708E12,1.7934782608695652,-4.989130434782608,7.271739130434782,0.6386370228096274,38.49131327763955,39.129950300449174,498.19630601362064,20.479080734143345
1.7103257409703027E12,1.8043478260869565,-4.945652173913043,7.260869565217391,0.23872259124786752,38.18696000420571,38.42568259545357,498.2041672711572,20.29603604031039
1.7103257409898345E12,1.717391304347826,-4.869565217391305,7.478260869565217,0.31921032896165,37.87063454039509,38.18984486935674,498.1887332425992,20.727900353419823
1.7103257410093665E12,1.717391304347826,-4.934782608695652,7.206521739130435,0.4674923977246759,37.8509453357393,38.31843773346397,498.20084967623353,20.950323456564362
1.7103257410288982E12,1.641304347826087,-4.782608695652174,7.3478260869565215,0.47484880385980655,37.8422907402862,38.31713954414601,498.2022199871803,20.73049673205575
1.7103257410484302E12,1.7608695652173914,-4.923913043478261,7.228260869565217,0.4829264262826951,37.824260333092255,38.30718675937495,498.1934211484696,21.138416664411626
1.710325741067962E12,1.7065217391304348,-4.891304347826087,7.260869565217391,0.4758585066626676,37.84712288941418,38.32298139607685,498.20128240600616,21.56775672051391
1.710325741087494E12,1.717391304347826,-4.913043478260869,7.3478260869565215,0.4767960878367529,37.863494499146285,38.34029058698304,498.19731571642353,21.81621573164651
1.7103257411070256E12,1.7065217391304348,-4.945652173913043,7.369565217391304,0.4917973866221174,37.89760802955723,38.38940541617935,498.1776986333965,21.904636848525627
1.7103257411265576E12,1.7065217391304348,-4.923913043478261,7.3478260869565215,0.5211508895338642,37.91376327440301,38.434914163936874,498.1885889993416,21.15478827414373
1.7103257411460894E12,1.7065217391304348,-4.934782608695652,7.358695652173913,0.5292285119567528,37.967277522954646,38.4965060349114,498.18281926903956,20.19268574627468
1.7103257411656213E12,1.717391304347826,-4.934782608695652,7.33695652173913,0.5752421111157073,38.0380288407837,38.61327095189941,498.1836126069561,19.67506881655083
1.710325741185153E12,1.717391304347826,-4.913043478260869,7.3478260869565215,0.5789924358120484,38.07142115490689,38.65041359071894,498.17697741710873,19.543374722406238
1.710325741204685E12,1.7608695652173914,-4.880434782608695,7.33695652173913,0.5337721745696277,38.04293311154046,38.576705286110084,498.15159060377965,20.62671370824739
1.7103257412242168E12,1.75,-4.891304347826087,7.33695652173913,0.48278218302514353,37.94167434473924,38.424456527764384,498.18238653926693,21.10733224240926
1.7103257412437488E12,1.7391304347826086,-4.880434782608695,7.33695652173913,0.43712919201006795,37.85419080903421,38.29132000104428,498.19450297290126,21.64038320069113
1.7103257412632805E12,1.75,-4.913043478260869,7.369565217391304,0.4328018942835205,37.82707307661451,38.25987497089803,498.17416467358646,21.39978544709509
1.7103257412828125E12,1.7717391304347825,-4.891304347826087,7.3478260869565215,0.41801696038448344,37.816543318813245,38.23456027919773,498.1944308512725,21.6309352673215
1.7103257413023442E12,1.7826086956521738,-5.021739130434782,7.25,0.41008358121914645,37.814307548321196,38.224391129540344,498.1969551082796,21.573021599414542
1.7103257413218762E12,1.7826086956521738,-4.869565217391305,7.423913043478261,0.4182333252708108,37.80824933150403,38.22648265677484,498.1926999321819,21.513809742189615
1.710325741341408E12,1.7608695652173914,-4.956521739130435,7.304347826086956,0.41347329777160857,37.81257662923058,38.22604992700219,498.18808414794023,21.104375255629453
1.71032574136094E12,1.7391304347826086,-4.891304347826087,7.358695652173913,0.40900175678750955,37.83082340131085,38.23982515809836,498.19154598612147,20.954218024518255
1.7103257413804717E12,1.7391304347826086,-4.858695652173913,7.467391304347826,0.41477148708957284,37.85145018714073,38.2662216742303,498.17575134941956,21.238665728409973
1.7103257414000037E12,1.8152173913043477,-4.913043478260869,7.380434782608695,0.421262433679394,37.84784410570194,38.26910653938133,498.16096641552053,21.400073933610194
1.7103257414195354E12,1.7391304347826086,-4.913043478260869,7.380434782608695,0.43554251617700057,37.834213117863314,38.269755634040315,498.17243375449584,21.164668937286013
1.7103257414390674E12,1.7934782608695652,-4.923913043478261,7.391304347826087,0.428835204700852,37.843444686346615,38.27227989104747,498.1875792965388,21.194310926712863
1.710325741458599E12,1.7608695652173914,-4.913043478260869,7.3478260869565215,0.42631094769369937,37.82851550919003,38.25482645688373,498.18866112097044,21.599995088576687
1.710325741478131E12,1.7391304347826086,-4.891304347826087,7.33695652173913,0.4501832068184861,37.838973145362516,38.289156352181,498.1603173208615,21.241694836818557
1.7103257414976628E12,1.75,-4.880434782608695,7.369565217391304,0.4646796542024201,37.889530407134345,38.354210061336765,498.1884447560841,21.278621110751764
1.7103257415171948E12,1.7282608695652173,-4.869565217391305,7.423913043478261,0.47261303336775706,37.9266009243251,38.39921395769286,498.17603983593466,21.226116565002986
1.7103257415367266E12,1.7608695652173914,-4.891304347826087,7.413043478260869,0.4837197641992288,37.870490297137536,38.354210061336765,498.18339624206976,21.786141012447004
1.7103257415562585E12,1.75,-4.9021739130434785,7.4021739130434785,0.46244388371037054,37.75509569109627,38.21753957480664,498.17503013313177,21.908747781365847
1.7103257415757903E12,1.7608695652173914,-4.913043478260869,7.369565217391304,0.45306807196951776,37.75480720458117,38.20787527655069,498.1614712669219,22.071598419141583
1.7103257415953223E12,1.75,-4.9021739130434785,7.293478260869565,0.4554480857191188,37.75682661018689,38.21227469590601,498.1655821997622,21.84391043709641
1.710325741614854E12,1.7717391304347825,-4.880434782608695,7.391304347826087,0.4640305595434379,37.70352872652158,38.16755928606502,498.1661591727924,22.079748163193248
1.7103257416343857E12,1.7826086956521738,-4.8478260869565215,7.4021739130434785,0.6231308726228324,37.81034085873853,38.43347173136136,498.16522159161826,22.215841676693163
1.7103257416539177E12,1.7826086956521738,-4.869565217391305,7.445652173913043,0.3258455188090228,39.333261171968125,39.65910669077715,498.1654379565046,21.482436833672146
1.7103257416734495E12,1.7826086956521738,-4.83695652173913,7.467391304347826,0.20417633106426372,38.06810355998321,38.27227989104747,498.1717846598369,22.070516594709947
1.7103257416929814E12,1.7826086956521738,-4.978260869565217,7.228260869565217,0.46179478905138843,37.93042337065022,38.392218159701606,498.16962101097363,22.61395306753553
1.7103257417125132E12,1.717391304347826,-4.782608695652174,7.445652173913043,0.4784548852985961,37.867605431986505,38.3460603172851,498.16413976718667,22.07715178455732
1.7103257417320452E12,1.7608695652173914,-4.978260869565217,7.326086956521739,0.49215799476599636,37.86782179687283,38.35997979163883,498.1661591727924,21.81599936676018
1.710325741751577E12,1.8043478260869565,-4.858695652173913,7.25,0.5009568334766428,37.873952135318774,38.37490896879542,498.1702701056326,21.901968348260922
1.710325741771109E12,1.7934782608695652,-4.858695652173913,7.369565217391304,0.504346550029105,37.89032374505088,38.39467029507998,498.16111065877806,21.641537146751542
1.7103257417906406E12,1.7934782608695652,-4.858695652173913,7.3478260869565215,0.5209345246475369,37.902007448912556,38.42294197356009,498.1597403478313,20.785525534811683
1.7103257418101726E12,1.8043478260869565,-4.858695652173913,7.33695652173913,0.5181217811252811,37.95501684606276,38.47313862718804,498.1660149295348,20.357339424769812
1.7103257418297043E12,1.8152173913043477,-4.891304347826087,7.369565217391304,0.557788676951966,38.012137176053194,38.56992585300516,498.15627850965006,19.650691706024613
1.7103257418492363E12,1.75,-4.923913043478261,7.3478260869565215,0.5772615167214294,38.06673324903647,38.643994765757895,498.1613270236644,18.721332397619772
1.710325741868768E12,1.75,-4.923913043478261,7.391304347826087,0.5918300857341392,38.15436102799905,38.74619111373319,498.17214526798074,18.48405223894742
1.7103257418883E12,1.7934782608695652,-4.923913043478261,7.456521739130435,0.5957967753168077,38.15861620409682,38.75441297941363,498.15187909029476,18.963156218905
1.7103257419078318E12,1.75,-4.913043478260869,7.4021739130434785,0.5650008398295451,38.06860841138464,38.63360925121418,498.1458208734776,18.528046432500652
1.7103257419273638E12,1.684782608695652,-4.891304347826087,7.391304347826087,0.5212951327914158,37.92097543728059,38.442270570072004,498.1133661405285,17.479542193358206
1.7103257419468955E12,1.7282608695652173,-4.891304347826087,7.369565217391304,0.501605928135625,37.89255951554293,38.39416544367855,498.1293771421167,16.42382579133818
1.7103257419664275E12,1.7282608695652173,-4.880434782608695,7.304347826086956,0.4918695082508932,37.86053751236648,38.35240702061737,498.13312746681305,16.126468315895597
1.7103257419859592E12,1.7282608695652173,-4.891304347826087,7.260869565217391,0.4800415611316635,37.8649369317218,38.344978492853464,498.1324062505253,15.696911894906986
1.7103257420054912E12,1.7717391304347825,-4.83695652173913,7.380434782608695,0.4881913051833279,37.86558602638078,38.35377733156411,498.12779046628367,15.91529618684008
1.710325742025023E12,1.826086956521739,-4.967391304347826,7.380434782608695,0.483647642570453,37.87012968899366,38.35377733156411,498.1264922769657,15.882480845747097
1.710325742044555E12,1.7391304347826086,-4.923913043478261,7.271739130434782,0.47333424965551496,37.885563717551676,38.35889796720719,498.12829531768506,14.035445932799094
1.7103257420640867E12,1.717391304347826,-4.880434782608695,7.467391304347826,0.4792482232151298,37.886789785240865,38.366038008455995,498.11084188352135,13.583099077117334
1.7103257420836187E12,1.7717391304347825,-4.913043478260869,7.423913043478261,0.4848737102596415,37.88801585293005,38.372889563189695,498.1184146545428,13.81121978893516
1.7103257421031504E12,1.8478260869565217,-4.934782608695652,7.271739130434782,0.4917252649933416,37.883544311945954,38.375269576939296,498.107091558825,14.738776056620605
1.7103257421226824E12,1.8478260869565217,-4.9021739130434785,7.3478260869565215,0.4913646568494626,37.88029883865104,38.371663495500506,498.11891950594423,15.235189227484373
1.710325742142214E12,1.8043478260869565,-4.9021739130434785,7.380434782608695,0.4927349677962027,37.86508117497935,38.357816142775555,498.1148806947328,16.535109464539225
1.710325742161746E12,1.7717391304347825,-4.891304347826087,7.358695652173913,0.4927349677962027,37.86630724266854,38.35904221046474,498.10716368045377,17.45740085332404
1.7103257421812778E12,1.7717391304347825,-4.891304347826087,7.3478260869565215,0.5171841999511958,37.92010997773528,38.437294177686475,498.0934605709864,18.269995244740873
1.7103257422008098E12,1.8478260869565217,-4.923913043478261,7.315217391304348,0.5340606610847308,37.934750668376765,38.468811329461495,498.1220207359816,18.732943979852674
1.7103257422203416E12,1.8478260869565217,-4.923913043478261,7.391304347826087,0.5174005648375232,37.95451199466133,38.471912559498854,498.10954369420335,19.34165052672035
1.7103257422398735E12,1.8369565217391304,-4.934782608695652,7.380434782608695,0.5272812279798065,37.86197994494199,38.3892611729218,498.1115630998091,19.746757715553965
1.7103257422594053E12,1.8043478260869565,-4.934782608695652,7.391304347826087,0.4954755896896827,37.79122862711294,38.286704216802626,498.11819828965645,20.02392113493933
1.7103257422789373E12,1.8043478260869565,-4.945652173913043,7.358695652173913,0.4909319270768079,37.78286251817495,38.27379444525176,498.1269971283671,19.970911737789123
1.710325742298469E12,1.8369565217391304,-4.913043478260869,7.326086956521739,0.47867125018492346,37.788632248477015,38.26730349866194,498.11920799245934,19.99716401066351
1.710325742318001E12,1.8369565217391304,-4.880434782608695,7.304347826086956,0.5101884019599441,37.66573699304307,38.17592539500301,498.1117794646954,19.830635169820212
1.7103257423375327E12,1.7717391304347825,-4.945652173913043,7.326086956521739,0.6884009466649231,38.06853628975586,38.75693723642078,498.11819828965645,19.649465638335425
1.7103257423570645E12,1.7934782608695652,-4.934782608695652,7.445652173913043,0.1981902358758731,39.185772441121635,39.383962676997506,498.1212995196938,19.72353455108816
1.7103257423765964E12,1.8152173913043477,-4.913043478260869,7.391304347826087,0.25314691700302566,38.06694961392279,38.32009653092582,498.11668373545217,20.553438133411188
1.7103257423961282E12,1.8478260869565217,-4.945652173913043,7.108695652173913,0.4529238287119662,37.97881698355877,38.43174081227074,498.1031969908711,20.967055674440346
1.7103257424156602E12,1.717391304347826,-4.891304347826087,7.619565217391304,0.48509007514596886,37.89436255626232,38.37945263140829,498.1148806947328,19.70608111692442
1.710325742435192E12,1.826086956521739,-5.0,7.315217391304348,0.5063659556348271,37.87979398724961,38.38615994288444,498.1163231273083,21.150100368273304
1.7103257424547239E12,1.8152173913043477,-4.945652173913043,7.239130434782608,0.499875009045006,37.90878688201748,38.408661891062486,498.1055770046207,20.66010602237058
1.7103257424742556E12,1.826086956521739,-4.967391304347826,7.315217391304348,0.5192036055569179,37.91311417974403,38.432317785300945,498.1188473843155,20.812066294201173
1.7103257424937876E12,1.8043478260869565,-4.989130434782608,7.228260869565217,0.5243963628287748,37.948453777844165,38.47285014067294,498.110625518635,19.847367387696195
1.7103257425133193E12,1.7717391304347825,-4.989130434782608,7.3478260869565215,0.5313200391912507,37.98314428128532,38.51446432047657,498.1217322494665,19.95951652044255
1.7103257425328513E12,1.826086956521739,-4.967391304347826,7.315217391304348,0.549855297786629,38.040553097790855,38.590408395577484,498.1228861955269,20.036398176717544
1.710325742552383E12,1.7934782608695652,-4.967391304347826,7.3478260869565215,0.5804348683875643,38.14909614909842,38.72953101748598,498.10875035628686,20.040004258156333
1.710325742571915E12,1.8043478260869565,-4.934782608695652,7.358695652173913,0.5991864918692699,38.20924558749743,38.808432079366696,498.1065145857948,20.498120844140153
1.7103257425914468E12,1.8043478260869565,-4.923913043478261,7.271739130434782,0.5733669487675368,38.21753957480664,38.79090652357418,498.1034854773862,20.407824564912865
1.7103257426109788E12,1.7934782608695652,-4.967391304347826,7.304347826086956,0.5439413242270141,38.109429253271735,38.65337057749875,498.1016824366668,20.73684343538802
1.7103257426305105E12,1.8478260869565217,-4.891304347826087,7.217391304347826,0.4870373591229152,37.95674776515338,38.443785124276296,498.0871859892829,21.16950108641399
1.7103257426500425E12,1.8369565217391304,-4.923913043478261,7.293478260869565,0.4757863850338918,37.91722511258425,38.39301149761814,498.08769084068433,21.452362114472642
1.7103257426695742E12,1.7934782608695652,-4.934782608695652,7.326086956521739,0.47326212802673917,37.90525292220747,38.378515050234206,498.103557599015,21.377499863803372
1.7103257426891062E12,1.7826086956521738,-4.945652173913043,7.293478260869565,0.47088211427713805,37.90280078682909,38.37368290110623,498.09778786871294,21.229939011328103
1.710325742708638E12,1.8152173913043477,-4.923913043478261,7.326086956521739,0.4771566959806319,37.901863205655005,38.37901990163564,498.0995909094323,21.211692239247828
1.71032574272817E12,1.8369565217391304,-5.010869565217392,7.228260869565217,0.49042707567537736,37.90056501633704,38.39099209201242,498.10103334200784,21.385721729483812
1.7103257427477017E12,1.8152173913043477,-4.923913043478261,7.271739130434782,0.4926628461674269,37.909075368532584,38.40173821470001,498.0959848279935,20.478792247628242
1.7103257427672336E12,1.7934782608695652,-4.913043478260869,7.413043478260869,0.4876143321531215,37.929774275991235,38.41738860814436,498.099374544546,21.08252240211039
1.7103257427867654E12,1.8369565217391304,-4.923913043478261,7.315217391304348,0.49424952200049427,37.92681728921143,38.42106681121192,498.1018266799244,21.007876516327443
1.7103257428062974E12,1.826086956521739,-4.934782608695652,7.326086956521739,0.5018222930219524,37.931144586937975,38.43296687995993,498.0980042335992,21.335957805628517
1.710325742825829E12,1.826086956521739,-4.945652173913043,7.326086956521739,0.5031204823399166,37.9266009243251,38.42972140666502,498.0852387053059,21.348146360891626
1.710325742845361E12,1.8369565217391304,-4.978260869565217,7.315217391304348,0.5060053474909482,37.92349969428774,38.42950504177869,498.09237874655474,21.392356919331185
1.7103257428648928E12,1.826086956521739,-4.989130434782608,7.282608695652174,0.516390862034662,37.913330544630355,38.42972140666502,498.09382117913026,21.916969647046287
1.7103257428844248E12,1.8152173913043477,-4.967391304347826,7.282608695652174,0.512279929194442,37.904964435692364,38.417244364886805,498.0960569496223,22.05522680940948
1.7103257429039565E12,1.8369565217391304,-4.945652173913043,7.293478260869565,0.5227375653669316,37.96186840079646,38.48460596616339,498.1091830860595,22.889241324572723
1.7103257429234885E12,1.8369565217391304,-4.934782608695652,7.315217391304348,0.5412728239623099,37.98848128181473,38.52975410577704,498.095191490077,22.868614538742847
1.7103257429430203E12,1.8369565217391304,-4.934782608695652,7.326086956521739,0.542282526765171,37.99973225590375,38.54201478266892,498.08898903000227,23.084330330411237
1.7103257429625522E12,1.826086956521739,-4.923913043478261,7.358695652173913,0.5440134458557899,37.94917499413192,38.49318843998771,498.08898903000227,22.959992642401772
1.710325742982084E12,1.8369565217391304,-4.923913043478261,7.271739130434782,0.5283630524114433,37.862124188199545,38.39048724061099,498.0779544207996,22.900708663548073
1.710325743001616E12,1.8478260869565217,-4.967391304347826,7.293478260869565,0.5112702263915809,37.84611318661132,38.3573834130029,498.0674967846271,22.52178162596007
1.7103257430211477E12,1.826086956521739,-4.956521739130435,7.293478260869565,0.5063659556348271,37.8512338222544,38.35759977788923,498.08004594803407,22.560078210840015
1.7103257430406797E12,1.826086956521739,-4.945652173913043,7.282608695652174,0.514659942944043,37.80925903430689,38.32391897725093,498.06425131133216,22.543129628077704
1.7103257430602114E12,1.7934782608695652,-4.923913043478261,7.326086956521739,0.6666202147746343,37.759999961853026,38.42662017662766,498.09021509769144,22.48521596017074
1.7103257430797432E12,1.8478260869565217,-4.945652173913043,7.380434782608695,0.4066938646666843,39.7438496045887,40.15054346925539,498.0837962727304,21.925912729014485
1.7103257430992751E12,1.858695652173913,-4.913043478260869,7.423913043478261,0.1691252194792294,38.39806001163245,38.56718523111168,498.08004594803407,22.643883543477482
1.710325743118807E12,1.8695652173913042,-5.0,7.065217391304348,0.5031204823399166,38.02735483972488,38.530475322064795,498.046293025767,23.362287087713135
1.7103257431383389E12,1.8043478260869565,-4.815217391304348,7.5,0.5309594310473718,37.95054530507866,38.481504736126034,498.0590585540603,22.419224669840894
1.7103257431578706E12,1.7826086956521738,-5.021739130434782,7.3478260869565215,0.5443740539996689,37.92912518133225,38.47349923533192,498.0662707169379,23.134743348925515
1.7103257431774026E12,1.7934782608695652,-4.945652173913043,7.1521739130434785,0.5564904876340018,37.93691431724004,38.49340480487404,498.07535804216366,23.70262905390609
1.7103257431969343E12,1.7717391304347825,-4.967391304347826,7.413043478260869,0.5705542052452809,37.943982236860066,38.514536442105346,498.06187129758257,23.85307477153239
1.7103257432164663E12,1.826086956521739,-4.913043478260869,7.173913043478261,0.5594474744138092,37.97578787515019,38.535235349564,498.08458961064696,22.42715804900623
1.710325743235998E12,1.826086956521739,-4.978260869565217,7.3478260869565215,0.5752421111157073,37.994467377003126,38.56970948811883,498.0993024229172,21.73507889927374
1.71032574325553E12,1.8369565217391304,-4.967391304347826,7.315217391304348,0.6035859112245932,38.05952108615889,38.66310699738348,498.09829272011433,21.293694531165904
1.7103257432750618E12,1.8478260869565217,-4.978260869565217,7.369565217391304,0.6141877906546344,38.132724539366315,38.74691233002095,498.09944666617474,21.224097159397264
1.7103257432945938E12,1.8478260869565217,-4.978260869565217,7.293478260869565,0.6407285500441253,38.20239403276373,38.84312258280785,498.0981484768568,21.629348591488434
1.7103257433141255E12,1.8478260869565217,-4.945652173913043,7.282608695652174,0.6411612798167801,38.24379184768103,38.88495312749781,498.08545507019227,21.836986760733936
1.7103257433336575E12,1.8043478260869565,-4.956521739130435,7.282608695652174,0.6150532501999438,38.15883256898315,38.77388581918309,498.1046394234466,22.099365246220263
1.7103257433531892E12,1.8369565217391304,-4.923913043478261,7.326086956521739,0.5270648630934791,38.01552689260565,38.54259175569913,498.09136904375185,21.862662060578117
1.7103257433727212E12,1.8478260869565217,-4.934782608695652,7.304347826086956,0.5170399566936442,37.948453777844165,38.46549373453781,498.10088909875026,22.033229712632863
1.710325743392253E12,1.8369565217391304,-4.956521739130435,7.293478260869565,0.4953313464321311,37.93604885769473,38.43138020412686,498.0931720844713,21.965651746469945
1.710325743411785E12,1.8478260869565217,-4.956521739130435,7.315217391304348,0.5068708070362576,37.923283329401414,38.43015413643767,498.064323432961,22.090927015653495
1.7103257434313167E12,1.858695652173913,-4.934782608695652,7.358695652173913,0.4931676975688574,37.925158491749585,38.41832618931844,498.08487809716206,22.111842287998474
1.7103257434508486E12,1.826086956521739,-5.010869565217392,7.25,0.48133975044962773,37.94318889894353,38.42452864939316,498.08610416485124,22.247791558240838
1.7103257434703804E12,1.7826086956521738,-4.9021739130434785,7.228260869565217,0.4798973178741119,37.94181858799679,38.421715905870904,498.0703095281493,21.356007618428187
1.7103257434899124E12,1.7717391304347825,-4.934782608695652,7.380434782608695,0.49432164362927006,37.94102525008026,38.43534689370953,498.0681458792861,21.64759536356871
1.710325743509444E12,1.8369565217391304,-4.934782608695652,7.293478260869565,0.48126762882085194,37.94975196716213,38.43101959598298,498.0716798390961,21.52455586487721
1.710325743528976E12,1.8478260869565217,-4.956521739130435,7.3478260869565215,0.48263793976759195,37.949463480647026,38.43210142041462,498.0806229210643,21.904853213411954
1.7103257435485078E12,1.826086956521739,-4.978260869565217,7.271739130434782,0.486748872607812,37.94102525008026,38.42777412268807,498.06699193322567,22.042100672972285
1.7103257435680398E12,1.826086956521739,-4.989130434782608,7.326086956521739,0.4814118720784035,37.94650649386722,38.42791836594562,498.07038164977814,22.28551117009058
1.7103257435875715E12,1.826086956521739,-4.945652173913043,7.304347826086956,0.47282939825408443,37.942972534057205,38.41580193231129,498.0738434879594,22.423263481052338
1.7103257436071035E12,1.8152173913043477,-4.956521739130435,7.326086956521739,0.4770124527230803,37.93323611417247,38.410248566895554,498.0677131495134,22.427807143665213
1.7103257436266353E12,1.8152173913043477,-4.923913043478261,7.271739130434782,0.4796088313590087,37.916576017925266,38.396184849284275,498.0644676762185,22.990788577889035
1.7103257436461672E12,1.8043478260869565,-4.9021739130434785,7.282608695652174,0.48718160238046676,37.91426812580444,38.40144972818491,498.0370614572837,22.833707670415365
1.710325743665699E12,1.826086956521739,-4.945652173913043,7.282608695652174,0.48198884510860984,37.904098976147054,38.386087821255664,498.05516398610644,23.17282356891913
1.710325743685231E12,1.8478260869565217,-4.956521739130435,7.304347826086956,0.4853064400322962,37.93482279000554,38.42012923003784,498.05559671587906,22.934389464186367
1.7103257437047627E12,1.8478260869565217,-4.967391304347826,7.304347826086956,0.5088902126419798,37.9974964854117,38.50638669805368,498.06410706807463,23.072935113064663
1.7103257437242947E12,1.826086956521739,-4.978260869565217,7.304347826086956,0.5058611042333966,38.00954079741726,38.515401901650655,498.05206275606906,22.866595133137125
1.7103257437438264E12,1.8478260869565217,-4.956521739130435,7.293478260869565,0.5117029561642357,37.994827985147,38.50653094131123,498.0677852711422,22.80896995174527
1.7103257437633582E12,1.7934782608695652,-4.945652173913043,7.326086956521739,0.4954755896896827,37.88664554198331,38.382121131672996,498.0764398665953,23.022017243148955
1.7103257437828901E12,1.8369565217391304,-4.945652173913043,7.326086956521739,0.47484880385980655,37.86904786456202,38.34389666842183,498.06951619023283,23.04112947477454
1.7103257438024219E12,1.8152173913043477,-4.956521739130435,7.282608695652174,0.4817724802222825,37.86190782331322,38.3436803035355,498.07009316326304,23.60360605759693
1.7103257438219539E12,1.8152173913043477,-4.967391304347826,7.282608695652174,0.48198884510860984,37.8762600274396,38.35824887254821,498.05487549959133,23.628415897895803
1.7103257438414856E12,1.8043478260869565,-4.945652173913043,7.315217391304348,0.6270254405767252,37.77673217972901,38.40375762030573,498.05747187822726,22.809402681517923
1.7103257438610176E12,1.7934782608695652,-4.934782608695652,7.369565217391304,0.6525564971633551,38.94466983612417,39.59722633328752,498.07268954189897,21.890933739058227
1.7103257438805493E12,1.8369565217391304,-4.9021739130434785,7.467391304347826,0.12534739081232438,38.52607590270948,38.6514232935218,498.06143856780994,23.240401535082047
1.7103257439000813E12,1.858695652173913,-5.0,7.293478260869565,0.4066938646666843,38.13229180959365,38.53898567426034,498.066559203453,24.580854127508896
1.710325743919613E12,1.8369565217391304,-4.826086956521739,7.315217391304348,0.4855949265473994,38.01394021677258,38.49953514331998,498.0669198115969,25.492183028719786
1.710325743939145E12,1.7826086956521738,-4.989130434782608,7.521739130434782,0.508457482869325,37.97441756420345,38.482875047072774,498.07333863655793,25.881711945737834
1.7103257439586768E12,1.858695652173913,-4.923913043478261,7.076086956521739,0.5256945521467391,37.957541103069914,38.48323565521665,498.0674246629983,26.06857908589591
1.7103257439782087E12,1.75,-4.923913043478261,7.326086956521739,0.5310315526761475,37.97030663136323,38.501338184039376,498.05271185072803,25.110659612495855
1.7103257439977405E12,1.826086956521739,-4.945652173913043,7.195652173913043,0.5458164865751847,37.96958541507547,38.515401901650655,498.05328882375824,24.764692159258388
1.7103257440172725E12,1.8369565217391304,-4.956521739130435,7.282608695652174,0.5614668800195313,38.01610386563586,38.57757074565539,498.0671361764832,23.19720067944535
1.7103257440368042E12,1.858695652173913,-4.978260869565217,7.315217391304348,0.5806512332738917,38.056996829151736,38.637648062425626,498.05812097288623,23.10070194014334
1.7103257440563362E12,1.826086956521739,-4.978260869565217,7.33695652173913,0.6013501407325436,38.10784257743867,38.70919271817121,498.07117498769463,23.009756566257067
1.710325744075868E12,1.8369565217391304,-5.0,7.315217391304348,0.6363291306888021,38.2111207498456,38.8474498805344,498.08545507019227,22.57161767144414
1.7103257440954E12,1.826086956521739,-4.967391304347826,7.293478260869565,0.6511140645878393,38.2546100919974,38.90572415658524,498.0732665149292,22.879072174915336
1.7103257441149316E12,1.8369565217391304,-4.945652173913043,7.282608695652174,0.6081295738374679,38.21573653408725,38.823866107924715,498.05422640493236,22.631622866585598
1.7103257441344636E12,1.8478260869565217,-4.923913043478261,7.282608695652174,0.5647844749432177,38.10005344153088,38.6648379164741,498.07405985284566,22.84596834730725
1.7103257441539954E12,1.8478260869565217,-4.913043478260869,7.260869565217391,0.5083132396117734,37.99151039022331,38.499823629835085,498.08668113788144,22.525964680429066
1.7103257441735273E12,1.8478260869565217,-4.934782608695652,7.304347826086956,0.5031926039686924,37.95797383284257,38.46116643681126,498.0690113388314,22.642152624386863
1.710325744193059E12,1.858695652173913,-4.967391304347826,7.304347826086956,0.507087171922585,37.9516271295103,38.458714301432884,498.06345797341567,22.362681312880675
1.710325744212591E12,1.858695652173913,-4.956521739130435,7.33695652173913,0.48451310211576254,37.95689200841093,38.441405110526695,498.07362712307304,22.65816362597509
1.7103257442321228E12,1.8804347826086956,-4.967391304347826,7.315217391304348,0.48581129143372676,37.9653302389777,38.45114153041143,498.0675689062559,22.564477630195338
1.7103257442516548E12,1.8369565217391304,-4.934782608695652,7.119565217391304,0.4800415611316635,37.96929692856037,38.44933848969203,498.05004335046334,21.60266358884139
1.7103257442711865E12,1.7717391304347825,-4.923913043478261,7.3478260869565215,0.46879058704264015,37.97888910518755,38.44767969223019,498.0687228523163,21.601942372553633
1.7103257442907185E12,1.858695652173913,-4.956521739130435,7.239130434782608,0.4862440212063815,37.97816788889979,38.46441191010617,498.0584815810301,21.839438896112313
1.7103257443102502E12,1.8478260869565217,-4.956521739130435,7.271739130434782,0.48328703442657406,37.985452173406145,38.46873920783272,498.06879497394505,22.227309015668514
1.7103257443297822E12,1.8152173913043477,-4.934782608695652,7.271739130434782,0.48732584563801834,37.98336064617165,38.470686491809666,498.07038164977814,22.501587569902846
1.710325744349314E12,1.8369565217391304,-4.945652173913043,7.304347826086956,0.48047429090431826,37.98552429503492,38.46599858593924,498.0744204609896,22.634579853365405
1.710325744368846E12,1.8369565217391304,-4.934782608695652,7.271739130434782,0.483647642570453,37.97391271280202,38.45756035537247,498.0755022854212,22.603423309734264
1.7103257443883777E12,1.8478260869565217,-4.945652173913043,7.282608695652174,0.4785270069273719,37.9653302389777,38.44385724590507,498.0644676762185,22.82541368310615
1.7103257444079097E12,1.8369565217391304,-4.945652173913043,7.304347826086956,0.48047429090431826,37.95912777890298,38.4396020698073,498.0716798390961,22.662490923701636
1.7103257444274414E12,1.826086956521739,-4.956521739130435,7.25,0.4924464812810995,37.95422350814623,38.44666998942733,498.0675689062559,22.6477059898026
1.7103257444469734E12,1.826086956521739,-4.945652173913043,7.271739130434782,0.47953670973023294,37.957036251668484,38.43657296139872,498.0674246629983,22.44843392949509
1.7103257444665051E12,1.8478260869565217,-4.945652173913043,7.293478260869565,0.4910040487055837,37.94326102057231,38.43426506927789,498.04564393110803,22.340035121445077
1.7103257444860369E12,1.8478260869565217,-4.945652173913043,7.282608695652174,0.48198884510860984,37.959055657274206,38.441044502382816,498.0666313250818,22.032292131458778
1.7103257445055688E12,1.8152173913043477,-4.956521739130435,7.282608695652174,0.5013895632492975,38.00658381063745,38.50797337388675,498.06937194697525,21.610019994976522
1.7103257445251006E12,1.8369565217391304,-4.967391304347826,7.271739130434782,0.520213308359779,38.042788868282905,38.563002176642684,498.07023740652056,21.776909443963703
1.7103257445446326E12,1.8152173913043477,-4.945652173913043,7.293478260869565,0.520213308359779,38.047404652524556,38.567617960884334,498.06439555458974,21.69620534136359
1.7103257445641643E12,1.8152173913043477,-4.956521739130435,7.304347826086956,0.5186266325267116,37.96605145526546,38.48467808779217,498.0540821616748,21.879177913567773
1.7103257445836963E12,1.8152173913043477,-4.945652173913043,7.315217391304348,0.4860276563200541,37.93172155996818,38.417749216288236,498.0457160527368,21.667717297997154
1.710325744603228E12,1.8152173913043477,-4.978260869565217,7.271739130434782,0.49756711692418065,37.92797123527184,38.42553835219602,498.0464372690246,21.83092854391677
1.71032574462276E12,1.826086956521739,-4.934782608695652,7.293478260869565,0.5020386579082797,37.92263423474243,38.42467289265071,498.04650939065334,21.66331787864183
1.7103257446422917E12,1.8043478260869565,-4.945652173913043,7.282608695652174,0.5541104738844006,37.7898583161662,38.3439687900506,498.0489615260317,21.96125232711462
1.7103257446618237E12,1.8043478260869565,-4.934782608695652,7.315217391304348,0.7414824654439051,38.40130548492736,39.142787950371265,498.0561015672805,21.553404516387527
1.7103257446813555E12,1.8043478260869565,-4.945652173913043,7.369565217391304,0.3328413168002745,39.73512288750683,40.06796420430711,498.0501154720921,21.24371424242428
1.7103257447008875E12,1.826086956521739,-4.978260869565217,7.369565217391304,0.33010069490679445,38.19986977575657,38.529970470663365,498.0499712288346,22.576738307087222
1.7103257447204192E12,1.8043478260869565,-4.967391304347826,7.1521739130434785,0.49843257646949013,38.116280808005435,38.614713384474925,498.05422640493236,23.191430949143285
1.7103257447399512E12,1.7282608695652173,-4.934782608695652,7.510869565217391,0.5445904188859962,38.03139365093633,38.575984069822326,498.0424705794419,22.624482825336795
1.710325744759483E12,1.8695652173913042,-5.010869565217392,7.184782608695652,0.5565626092627776,38.02656150180835,38.58312411107113,498.05602944565175,23.376206562066862
1.710325744779015E12,1.826086956521739,-4.923913043478261,7.206521739130435,0.5747372597142768,38.03759611101105,38.612333370725324,498.05177426955396,23.275380525038308
1.7103257447985466E12,1.8152173913043477,-4.945652173913043,7.282608695652174,0.5800742602436854,38.0603865457042,38.64046080594788,498.0487451611454,23.05245257049234
1.7103257448180786E12,1.8152173913043477,-4.945652173913043,7.271739130434782,0.5849064093716633,38.07545996611834,38.66036637549,498.04283118758576,22.19038274173531
1.7103257448376104E12,1.826086956521739,-4.989130434782608,7.3478260869565215,0.6045956140274542,38.13438333682816,38.73897895085561,498.0361238761096,21.2817944624179
1.7103257448571423E12,1.8478260869565217,-4.967391304347826,7.315217391304348,0.6429643205361749,38.16957869167074,38.812543012206916,498.06468404110484,21.24147847193223
1.710325744876674E12,1.8369565217391304,-4.989130434782608,7.315217391304348,0.6718850936752669,38.27617445900136,38.948059552676625,498.0603567433783,20.769803019738557
1.710325744896206E12,1.8478260869565217,-4.945652173913043,7.304347826086956,0.6908530820433,38.333655397135665,39.02450847917896,498.05393791841726,21.035282735262246
1.7103257449157378E12,1.826086956521739,-4.934782608695652,7.282608695652174,0.6695050799256659,38.336396019029145,39.00590109895481,498.0555245942503,21.05439496688783
1.7103257449352698E12,1.8152173913043477,-4.934782608695652,7.271739130434782,0.6203181291005766,38.2272038730626,38.847522002163174,498.07232893375505,21.41745524614516
1.7103257449548015E12,1.8152173913043477,-4.934782608695652,7.282608695652174,0.5758190841459137,38.09666372497842,38.67248280912433,498.0691555820889,21.532417122413772
1.7103257449743335E12,1.8152173913043477,-4.945652173913043,7.271739130434782,0.5624765828223923,38.0559150047201,38.61839158754249,498.04881728277417,21.76875969991204
1.7103257449938652E12,1.8152173913043477,-4.945652173913043,7.315217391304348,0.5576444336944144,38.05533803168989,38.612982465384306,498.0646119194761,21.92360483689366
1.7103257450133972E12,1.7826086956521738,-5.032608695652174,7.228260869565217,0.5492783247564227,38.04538524691883,38.594663571675255,498.0671361764832,21.927427283218776
1.710325745032929E12,1.826086956521739,-4.978260869565217,7.358695652173913,0.5534613792254185,38.05093861233457,38.60439999155999,498.06172705432505,22.1415563990541
1.710325745052461E12,1.7934782608695652,-4.989130434782608,7.173913043478261,0.5472589191507005,38.06081927547685,38.60807819462755,498.05386579678844,21.98837005953432
1.7103257450719927E12,1.7826086956521738,-4.967391304347826,7.25,0.558798379754827,38.05259740979641,38.61139578955124,498.05062032349355,21.660144526975696
1.7103257450915247E12,1.8043478260869565,-4.934782608695652,7.315217391304348,0.5378831074098477,38.07524360123201,38.61312670864186,498.0620876624689,21.717409100223673
1.7103257451110564E12,1.8369565217391304,-4.945652173913043,7.326086956521739,0.5473310407794763,38.075315722860786,38.62264676364026,498.067857392771,21.97856151802081
1.7103257451305884E12,1.826086956521739,-4.956521739130435,7.304347826086956,0.5490619598700953,38.07719088520896,38.62625284507905,498.0692998253465,22.255869180663726
1.71032574515012E12,1.826086956521739,-4.956521739130435,7.282608695652174,0.5438692025982383,38.07372904702772,38.617598249625956,498.07095862280835,22.382154152650138
1.710325745169652E12,1.826086956521739,-4.956521739130435,7.293478260869565,0.5409843374472068,38.06139624850706,38.602380585954265,498.0653331357638,22.563540049021253
1.7103257451891838E12,1.8043478260869565,-4.967391304347826,7.260869565217391,0.5352146071451435,38.0722866144522,38.607501221597346,498.04441786341886,22.755167216678526
1.7103257452087156E12,1.8043478260869565,-4.945652173913043,7.282608695652174,0.5293727552143044,38.05706895078051,38.586441705994815,498.07204044723994,22.830390075491678
1.7103257452282476E12,1.826086956521739,-4.956521739130435,7.293478260869565,0.526776376578376,38.06291080271135,38.589687179289726,498.07204044723994,22.92270576032469
1.7103257452477793E12,1.8152173913043477,-4.956521739130435,7.293478260869565,0.5204296732461063,38.060602910590525,38.58103258383663,498.05869794591644,23.05086589465927
1.7103257452673113E12,1.8369565217391304,-4.956521739130435,7.304347826086956,0.5238193897985685,38.052020436766206,38.575839826564774,498.07297802841407,22.90900265085729
1.710325745286843E12,1.8369565217391304,-4.967391304347826,7.260869565217391,0.5225212004806042,38.04358220619944,38.56610340668004,498.06951619023283,23.052019840719684
1.710325745306375E12,1.8043478260869565,-4.934782608695652,7.293478260869565,0.5235309032834653,38.041418557336165,38.56494946061963,498.06554950065015,22.835727076021087
1.7103257453259067E12,1.8152173913043477,-4.956521739130435,7.282608695652174,0.5231702951395863,38.11462201054359,38.63779230568318,498.05776036474236,23.07055509931506
1.7103257453454387E12,1.8478260869565217,-4.956521739130435,7.304347826086956,0.5472589191507005,38.13416697194183,38.68142589109253,498.06612647368036,22.90503596127462
1.7103257453649705E12,1.826086956521739,-4.956521739130435,7.304347826086956,0.5540383522556248,38.16193379902051,38.715972151276134,498.0674967846271,23.186598800015307
1.7103257453845024E12,1.8043478260869565,-4.945652173913043,7.271739130434782,0.5576444336944144,38.11152078050623,38.669165214200646,498.0757907719363,23.063847787838913
1.7103257454040342E12,1.8043478260869565,-4.945652173913043,7.304347826086956,0.5287957821840981,38.01105535162155,38.53985113380565,498.06764102788463,23.197633409218003
1.7103257454235662E12,1.8152173913043477,-4.945652173913043,7.282608695652174,0.5111981047628051,38.02850878578529,38.539706890548096,498.0713192309522,23.047043448334154
1.710325745443098E12,1.7934782608695652,-4.956521739130435,7.239130434782608,0.5145156996864915,38.01992631196097,38.534442011647464,498.049826985577,22.928403368997976
1.71032574546263E12,1.8369565217391304,-4.967391304347826,7.282608695652174,0.5289400254416496,37.970018144848126,38.498958170289775,498.05812097288623,22.98350429338268
1.7103257454821616E12,1.8152173913043477,-4.945652173913043,7.293478260869565,0.6930888525353495,37.98343276780043,38.67652162033578,498.06014037849195,22.798800802087882
1.7103257455016936E12,1.8478260869565217,-4.945652173913043,7.326086956521739,0.35159294028198007,39.819360949916955,40.17095389019894,498.05602944565175,22.413527061167606
1.7103257455212253E12,1.8369565217391304,-4.945652173913043,7.369565217391304,0.16025425913980712,38.50855034691696,38.66880460605677,498.0584815810301,22.98386490152656
1.7103257455407573E12,1.858695652173913,-5.010869565217392,7.08695652173913,0.48126762882085194,38.21638562874623,38.69765325756708,498.0772332045118,23.97178697249734
1.710325745560289E12,1.8043478260869565,-4.869565217391305,7.413043478260869,0.5217278625640706,38.141811864592064,38.663539727156135,498.0454275662217,23.20131161228557
1.710325745579821E12,1.7934782608695652,-5.043478260869565,7.315217391304348,0.5254781872604117,38.12544025485996,38.65091844212037,498.0638907031883,23.507540048067575
1.7103257455993528E12,1.8369565217391304,-4.934782608695652,7.108695652173913,0.5443740539996689,38.125872984632615,38.67024703863228,498.0605009866358,23.979648230033902
1.7103257456188848E12,1.7717391304347825,-4.934782608695652,7.3478260869565215,0.5470425542643731,38.138710634554705,38.68575318881908,498.06143856780994,23.86591242145448
1.7103257456384165E12,1.8152173913043477,-4.934782608695652,7.195652173913043,0.5634862856252534,38.16178955576296,38.72527584138821,498.0570391484546,22.63486833988051
1.7103257456579485E12,1.8043478260869565,-4.989130434782608,7.369565217391304,0.571563908048142,38.193018221022875,38.764582129071016,498.06699193322567,21.830351570886563
1.7103257456774802E12,1.8369565217391304,-4.978260869565217,7.293478260869565,0.6133223311093249,38.253311902679435,38.86663423378876,498.0725452986414,21.47262829215864
1.7103257456970122E12,1.826086956521739,-4.989130434782608,7.315217391304348,0.6338769953104253,38.32601050448543,38.959887499795855,498.08516658367716,21.29960850472552
1.710325745716544E12,1.826086956521739,-4.967391304347826,7.304347826086956,0.6579656193215394,38.43065898783911,39.08862460716065,498.07124710932345,21.440029315951982
1.710325745736076E12,1.8369565217391304,-4.923913043478261,7.271739130434782,0.66121109261645,38.449915462722245,39.11112655533869,498.0716798390961,21.588888357745216
1.7103257457556077E12,1.826086956521739,-4.923913043478261,7.260869565217391,0.6213278319034377,38.380101726067274,39.00142955797071,498.06396282481705,21.89684771261784
1.7103257457751396E12,1.8152173913043477,-4.956521739130435,7.293478260869565,0.5572838255505355,38.22107353461666,38.77835736016719,498.06158281106747,21.82818792202329
1.7103257457946714E12,1.826086956521739,-4.956521739130435,7.326086956521739,0.5415613104774131,38.164602299285214,38.706163609762626,498.0802623129204,22.074483284292615
1.7103257458142034E12,1.8478260869565217,-4.967391304347826,7.282608695652174,0.5326903501379908,38.1384221480396,38.67111249817759,498.0763677449665,21.974883314953246
1.710325745833735E12,1.826086956521739,-4.978260869565217,7.293478260869565,0.5317527689639054,38.13438333682816,38.66613610579206,498.05328882375824,22.21317317642846
1.710325745853267E12,1.826086956521739,-4.945652173913043,7.326086956521739,0.5355752152890224,38.12731541720813,38.66289063249715,498.0460045392519,22.066910513271157
1.7103257458727988E12,1.8152173913043477,-4.989130434782608,7.228260869565217,0.5312479175624749,38.13380636379795,38.665054281360426,498.0564621754244,22.484278378996656
1.7103257458923308E12,1.8152173913043477,-4.989130434782608,7.217391304347826,0.5389649318414845,38.13431121519938,38.673276147040866,498.0651888925063,22.00820350744766
1.7103257459118625E12,1.8043478260869565,-4.923913043478261,7.358695652173913,0.5393976616141393,38.143326418796356,38.682724080410495,498.074925312391,22.24793580149839
1.7103257459313943E12,1.8369565217391304,-4.967391304347826,7.293478260869565,0.5487734733549922,38.151043433075365,38.69981690643036,498.0635300950444,22.385760234088927
1.7103257459509263E12,1.8369565217391304,-4.967391304347826,7.3478260869565215,0.5474752840370278,38.150538581673935,38.69801386571096,498.0518463911827,22.656721193399573
1.710325745970458E12,1.8043478260869565,-4.978260869565217,7.271739130434782,0.5556250280886922,38.147293108379024,38.702918136467716,498.0770168396255,22.86154661912282
1.71032574598999E12,1.8043478260869565,-4.956521739130435,7.282608695652174,0.5626208260799439,38.1408021617892,38.703422987869146,498.10002363920495,23.15710105384601
1.7103257460095217E12,1.8043478260869565,-4.945652173913043,7.282608695652174,0.551586216877248,38.139215485956136,38.69080170283338,498.10117758526536,23.50811702109778
1.7103257460290537E12,1.8152173913043477,-4.934782608695652,7.293478260869565,0.5438692025982383,38.133589998911624,38.67745920150986,498.09382117913026,23.445010595918966
1.7103257460485854E12,1.8478260869565217,-4.945652173913043,7.293478260869565,0.5518025817635753,38.12457479531465,38.676377377078225,498.09944666617474,23.620121910586587
1.7103257460681174E12,1.826086956521739,-4.923913043478261,7.304347826086956,0.5586541364972755,38.11325169959685,38.671905836094126,498.08257020504124,23.62264616759374
1.7103257460876492E12,1.8478260869565217,-4.9021739130434785,7.33695652173913,0.5430037430529289,38.1151989835738,38.658202726626726,498.10117758526536,24.846117478146255
1.7103257461071812E12,1.8152173913043477,-4.945652173913043,7.315217391304348,0.5519468250211269,38.110799564218475,38.6627463892396,498.0736992447018,25.78175136825459
1.710325746126713E12,1.8152173913043477,-4.978260869565217,7.304347826086956,0.5507207573319385,38.10726560440846,38.6579863617404,498.0918738951533,26.00756418795159
1.7103257461462449E12,1.7934782608695652,-5.0,7.293478260869565,0.5611783935044281,38.122771754595256,38.68395014809968,498.08516658367716,25.76047548776573
1.7103257461657766E12,1.8152173913043477,-4.967391304347826,7.293478260869565,0.5781269762667389,38.19236912636389,38.77049610263063,498.1063703425372,25.42309050835258
1.7103257461853086E12,1.8369565217391304,-4.956521739130435,7.3478260869565215,0.5799300169861338,38.20116796507454,38.78109798206067,498.092306624926,25.148884075747024
1.7103257462048403E12,1.7717391304347825,-4.978260869565217,7.271739130434782,0.5875749096363676,38.1795314764418,38.76710638607817,498.077810177542,25.120251789123035
1.7103257462243723E12,1.8043478260869565,-4.923913043478261,7.3478260869565215,0.5779827330091873,38.0767581554363,38.65474088844549,498.0612222029236,25.552693075262678
1.710325746243904E12,1.7826086956521738,-4.956521739130435,7.380434782608695,0.5528122845664364,38.0630550459689,38.61586733053534,498.0770168396255,25.761629433826144
1.710325746263436E12,1.8043478260869565,-4.967391304347826,7.282608695652174,0.5331952015394213,38.06053078896175,38.59372599050117,498.08769084068433,25.861085159907958
1.7103257462829678E12,1.826086956521739,-4.956521739130435,7.260869565217391,0.5332673231681971,38.07372904702772,38.606996370195915,498.08105565083696,25.67082830319742
1.7103257463024998E12,1.826086956521739,-4.967391304347826,7.282608695652174,0.7020319345035475,37.996558904237624,38.69859083874117,498.0782429073147,25.59185511968793
1.7103257463220315E12,1.8152173913043477,-4.945652173913043,7.282608695652174,0.6481570778080318,39.38302509582342,40.03118217363145,498.105793369507,24.589941452734646
1.7103257463415635E12,1.8369565217391304,-4.945652173913043,7.391304347826087,0.19458415443708355,39.214404727745624,39.408988882182705,498.09151328700943,24.233660606582237
1.7103257463610952E12,1.858695652173913,-4.967391304347826,7.293478260869565,0.4502553284472619,38.31706742251723,38.767322750964496,498.0930999628425,24.72516950668925
1.7103257463806272E12,1.8478260869565217,-4.880434782608695,7.228260869565217,0.5316085257063539,38.20780315492191,38.739411680628265,498.0906478274641,24.43343751829118
1.710325746400159E12,1.7826086956521738,-4.956521739130435,7.510869565217391,0.5424267700227225,38.177439949207304,38.719866719230026,498.0833635429578,23.418830444673354
1.710325746419691E12,1.8804347826086956,-4.967391304347826,7.08695652173913,0.5505765140743869,38.176574489661995,38.72715100373638,498.1068030723099,23.969479080376516
1.7103257464392227E12,1.7934782608695652,-4.913043478260869,7.315217391304348,0.5593032311562576,38.192657612878996,38.75196084403525,498.10586549113583,23.667650063949832
1.7103257464587546E12,1.826086956521739,-4.967391304347826,7.217391304347826,0.565722056117303,38.21429410151173,38.780016157629035,498.0814162589808,23.852497798502185
1.7103257464782864E12,1.826086956521739,-4.945652173913043,7.326086956521739,0.5890173422118834,38.24653246957451,38.83554981178639,498.0864647729951,22.78048190837883
1.7103257464978184E12,1.8152173913043477,-5.0,7.391304347826087,0.6089950333827774,38.285694513999765,38.89468954738254,498.08271444829876,22.62592525791231
1.71032574651735E12,1.826086956521739,-4.967391304347826,7.33695652173913,0.632578805992461,38.33610753251404,38.9686863385065,498.08156050223835,22.527551356262133
1.710325746536882E12,1.858695652173913,-4.945652173913043,7.271739130434782,0.6672693094336164,38.44385724590508,39.11112655533869,498.0811998940945,22.082056055314073
1.7103257465564138E12,1.8043478260869565,-4.956521739130435,7.271739130434782,0.6732554046220071,38.48871689900362,39.161972303625625,498.0949751251907,22.19824399927187
1.7103257465759458E12,1.8043478260869565,-4.923913043478261,7.271739130434782,0.6228423861077292,38.429432920149914,39.05227530625764,498.10701943719624,22.22788598869872
1.7103257465954775E12,1.826086956521739,-4.923913043478261,7.304347826086956,0.592911910165776,38.31338921944967,38.90630112961544,498.104206693674,22.545509641827305
1.7103257466150095E12,1.8152173913043477,-4.945652173913043,7.315217391304348,0.5337721745696277,38.20369222208169,38.73746439665132,498.0904314625778,22.84474227961806
1.7103257466345413E12,1.858695652173913,-4.934782608695652,7.326086956521739,0.5223048355942769,38.183426044395695,38.70573087998997,498.0942539089029,23.186959408159186
1.710325746654073E12,1.858695652173913,-4.945652173913043,7.326086956521739,0.5184102676403842,38.18176724693385,38.700177514574236,498.08963812466123,23.784487102566615
1.710325746673605E12,1.8478260869565217,-4.978260869565217,7.304347826086956,0.5031204823399166,38.17643024640444,38.67955072874436,498.0961290712511,24.148701327884357
1.7103257466931367E12,1.858695652173913,-4.956521739130435,7.369565217391304,0.5062217123772755,38.16438593439889,38.67060764677616,498.07095862280835,24.264456542069503
1.7103257467126687E12,1.858695652173913,-4.956521739130435,7.141304347826087,0.5123520508232178,38.17130961076136,38.68366166158458,498.09735513894026,23.61528976145861
1.7103257467322004E12,1.7934782608695652,-4.9021739130434785,7.326086956521739,0.504707158172984,38.186671517690606,38.69137867586359,498.0990860580309,23.55665487726389
1.7103257467517324E12,1.8369565217391304,-4.945652173913043,7.3478260869565215,0.5193478488144695,38.18573393651652,38.70508178533099,498.10572124787825,23.639017777325844
1.7103257467712642E12,1.8804347826086956,-4.956521739130435,7.304347826086956,0.5173284432087474,38.19424428871206,38.71157273192081,498.1145200865889,23.895698654138883
1.7103257467907961E12,1.858695652173913,-4.989130434782608,7.293478260869565,0.5196363353295727,38.196768545719216,38.71640488104879,498.102908504356,24.174953600758744
1.710325746810328E12,1.8369565217391304,-4.967391304347826,7.282608695652174,0.5194920920720211,38.195398234772476,38.7148903268445,498.09439815216047,24.329870859369144
1.7103257468298599E12,1.826086956521739,-4.934782608695652,7.282608695652174,0.5164629836634378,38.19381155893941,38.710274542602846,498.0925951114411,24.294387018011456
1.7103257468493916E12,1.8369565217391304,-4.923913043478261,7.25,0.5040580635140018,38.19395580219696,38.69801386571096,498.08812357045696,23.960752363294645
1.7103257468689236E12,1.8369565217391304,-4.9021739130434785,7.260869565217391,0.5213672544201916,38.18234421996406,38.70371147438425,498.07506955564855,23.52686864457949
1.7103257468884553E12,1.826086956521739,-4.934782608695652,7.326086956521739,0.5273533496085823,38.167992015837676,38.69534536544626,498.0823538401549,23.31216255571396
1.7103257469079873E12,1.8152173913043477,-4.956521739130435,7.326086956521739,0.5256224305179633,38.16864111049666,38.69426354101462,498.09562421984964,23.146931904188623
1.710325746927519E12,1.8369565217391304,-4.956521739130435,7.33695652173913,0.5310315526761475,38.229511765183425,38.76054331785957,498.09692240916763,22.807960248942408
1.710325746947051E12,1.8369565217391304,-4.934782608695652,7.271739130434782,0.5425710132802741,38.24040213112857,38.78297314440884,498.1116352214379,22.76526424470714
1.7103257469665828E12,1.826086956521739,-4.934782608695652,7.271739130434782,0.5352146071451435,38.26535621468499,38.800570821830135,498.1034133557574,22.5064918406596
1.7103257469861147E12,1.826086956521739,-4.934782608695652,7.293478260869565,0.5467540677492699,38.2224438455634,38.76919791331267,498.10305274761356,22.573925563564966
1.7103257470056465E12,1.8152173913043477,-4.945652173913043,7.271739130434782,0.5137223617699578,38.139936702243894,38.65365906401385,498.0949751251907,22.45456426794103
1.7103257470251785E12,1.826086956521739,-4.956521739130435,7.184782608695652,0.5150926727166978,38.128757849783646,38.643850522500344,498.0766562314816,22.342847864967332
1.7103257470447102E12,1.7934782608695652,-4.913043478260869,7.239130434782608,0.5080968747254461,38.131354228419575,38.63945110314502,498.11675585708093,21.94004856825454
1.7103257470642422E12,1.8369565217391304,-4.967391304347826,7.195652173913043,0.526055160290618,38.04257250339658,38.568627663687195,498.123823776701,21.82494244872838
1.710325747083774E12,1.8369565217391304,-4.945652173913043,7.271739130434782,0.71912476052341,38.209461952383755,38.92858671290716,498.1244007497312,21.51597339105289
1.710325747103306E12,1.8152173913043477,-4.934782608695652,7.315217391304348,0.4925907245386511,39.70843788485979,40.20102860939844,498.1324783721541,20.955371970578668
1.7103257471228376E12,1.7826086956521738,-4.913043478260869,7.315217391304348,0.2310776985976337,38.41356616181925,38.64464386041688,498.1262037904506,21.7697694027149
1.7103257471423696E12,1.8478260869565217,-4.978260869565217,7.326086956521739,0.4529238287119662,38.325938382856656,38.77886221156862,498.11625100567954,21.910983551857896
1.7103257471619014E12,1.826086956521739,-4.891304347826087,7.195652173913043,0.5206460381324337,38.22648265677484,38.747128694907275,498.1120679512105,21.615068508990827
1.7103257471814333E12,1.7826086956521738,-5.021739130434782,7.369565217391304,0.5417776753637404,38.21934261552604,38.76112029088978,498.11625100567954,20.952559227056412
1.710325747200965E12,1.8478260869565217,-4.923913043478261,7.195652173913043,0.5544710820282795,38.23254087359201,38.78701195562029,498.11668373545217,21.9023289564048
1.710325747220497E12,1.8369565217391304,-4.967391304347826,7.282608695652174,0.5662269075187335,38.23867121203795,38.80489811955668,498.13810385919857,21.637931065312753
1.7103257472400288E12,1.8152173913043477,-4.956521739130435,7.293478260869565,0.5833918551673717,38.26196649813253,38.8453583532999,498.11733283011114,22.080974230882436
1.7103257472595608E12,1.826086956521739,-4.967391304347826,7.260869565217391,0.612240506677688,38.28353086513649,38.89577137181418,498.10204304481067,21.818667867024885
1.7103257472790925E12,1.8152173913043477,-4.967391304347826,7.271739130434782,0.6359685225449232,38.313100732934565,38.949069255479486,498.12216497923913,21.592205952668902
1.7103257472986245E12,1.7717391304347825,-4.978260869565217,7.326086956521739,0.6776548239773302,38.3979157683749,39.07557059235223,498.11322189727093,21.114255918771736
1.7103257473181562E12,1.7717391304347825,-4.967391304347826,7.33695652173913,0.7084507594645929,38.450420314123676,39.158871073588266,498.1091830860595,21.098172795554735
1.7103257473376882E12,1.7826086956521738,-4.989130434782608,7.315217391304348,0.7142204897666562,38.462248261242905,39.17646875100956,498.0955520982209,20.44424598744464
1.71032574735722E12,1.7826086956521738,-4.956521739130435,7.293478260869565,0.6568837948899025,38.38875632152037,39.04564011641027,498.09504724681943,20.161601324272315
1.7103257473767517E12,1.7608695652173914,-4.967391304347826,7.282608695652174,0.5942100994837403,38.246820956089614,38.84103105557335,498.07391560958814,19.88580821583369
1.7103257473962837E12,1.7826086956521738,-4.934782608695652,7.326086956521739,0.5810118414177706,38.204846168142105,38.785858009559874,498.083940515988,19.96067046650296
1.7103257474158154E12,1.7826086956521738,-4.923913043478261,7.326086956521739,0.573294827138761,38.17989208458568,38.75318691172444,498.0659822304228,20.113928927651518
1.7103257474353474E12,1.8043478260869565,-4.967391304347826,7.304347826086956,0.5642075019130114,38.16568412371685,38.72989162562986,498.09706665242516,20.105057967312096
1.7103257474548792E12,1.7826086956521738,-4.9021739130434785,7.304347826086956,0.5544710820282795,38.16207804227806,38.71654912430634,498.0799738264053,20.50158268232139
1.7103257474744111E12,1.8369565217391304,-4.967391304347826,7.293478260869565,0.5531728927103153,38.16626109674706,38.71943398945737,498.07593501519386,20.67366488858043
1.7103257474939429E12,1.7717391304347825,-4.978260869565217,7.217391304347826,0.5581492850958449,38.1676314076938,38.72578069278964,498.0863205297376,20.20278277430329
1.7103257475134749E12,1.7608695652173914,-4.956521739130435,7.315217391304348,0.5619717314209618,38.17751207083608,38.73948380225704,498.09151328700943,19.832798818683486
1.7103257475330066E12,1.7608695652173914,-4.923913043478261,7.358695652173913,0.5562020011188986,38.17960359807058,38.735805599189476,498.0864647729951,19.94336127559677
1.7103257475525386E12,1.8043478260869565,-4.989130434782608,7.3478260869565215,0.5630535558525986,38.17873813852527,38.741791694377866,498.0718962039824,20.341328423181587
1.7103257475720703E12,1.7717391304347825,-4.989130434782608,7.304347826086956,0.5593753527850334,38.17304052985198,38.732415882637014,498.07362712307304,20.968570228644637
1.7103257475916023E12,1.8152173913043477,-4.978260869565217,7.293478260869565,0.5557692713462438,38.173833867768515,38.72960313911476,498.08163262386716,21.451424533298557
1.710325747611134E12,1.7826086956521738,-4.967391304347826,7.271739130434782,0.5555529064599164,38.16301562345215,38.71856852991206,498.07687259636793,22.139104263675723
1.710325747630666E12,1.7717391304347825,-4.956521739130435,7.25,0.5437249593406868,38.15904893386948,38.702773893210164,498.08285869155634,22.39802091098081
1.7103257476501978E12,1.7826086956521738,-4.956521739130435,7.271739130434782,0.5611783935044281,38.1336621205404,38.69484051404483,498.0943260305317,22.003515601577234
1.7103257476697297E12,1.7934782608695652,-4.956521739130435,7.315217391304348,0.5561298794901228,38.13539303963102,38.69152291912114,498.0897823679188,22.157783765528652
1.7103257476892615E12,1.7826086956521738,-4.945652173913043,7.271739130434782,0.5660826642611819,38.15299071705231,38.71907338131349,498.0956963414784,22.04065824039677
1.7103257477087935E12,1.7934782608695652,-4.967391304347826,7.304347826086956,0.5716360296769178,38.22785296772158,38.7994889973985,498.08927751651737,22.16312076605806
1.7103257477283252E12,1.7826086956521738,-4.956521739130435,7.304347826086956,0.594282221112516,38.23210814381935,38.82639036493187,498.067208298112,22.16297652280051
1.7103257477478572E12,1.7826086956521738,-4.967391304347826,7.293478260869565,0.5918300857341392,38.211841966133356,38.803672051867494,498.0566785403107,22.42441742711275
1.710325747767389E12,1.7826086956521738,-4.956521739130435,7.304347826086956,0.588800977325556,38.13387848542673,38.72267946275228,498.055957324023,22.472089823733548
1.710325747786921E12,1.826086956521739,-4.967391304347826,7.315217391304348,0.5510092438470416,38.0994043468719,38.65041359071894,498.0728337851565,22.82058153397817
1.7103257478064526E12,1.8152173913043477,-4.967391304347826,7.271739130434782,0.5620438530497376,38.09327400842596,38.655317861475694,498.0627367571279,22.887005554080673
1.7103257478259846E12,1.7934782608695652,-4.967391304347826,7.282608695652174,0.5743766515703979,38.0562034912352,38.6305801428056,498.08516658367716,23.065578706929532
1.7103257478455164E12,1.7826086956521738,-4.967391304347826,7.304347826086956,0.6940264337094347,37.9441986017464,38.63822503545583,498.0848059755333,22.928619733884304
1.7103257478650483E12,1.7826086956521738,-4.945652173913043,7.33695652173913,0.7331163565059133,39.12151206988241,39.85462842638832,498.0844453673894,22.215264703662957
1.71032574788458E12,1.8152173913043477,-4.934782608695652,7.33695652173913,0.1857131940976613,38.772803994751456,38.958517188849115,498.09021509769144,22.75682601414037
1.710325747904112E12,1.8369565217391304,-4.978260869565217,7.260869565217391,0.4744160740871518,38.34469000633836,38.81910608042551,498.08581567833613,23.146066444643314
1.7103257479236438E12,1.826086956521739,-4.880434782608695,7.195652173913043,0.573294827138761,38.203980708596795,38.777275535735555,498.0895660030325,22.986894009935142
1.7103257479431758E12,1.7065217391304348,-5.010869565217392,7.532608695652174,0.5991864918692699,38.16416956951256,38.76335606138183,498.08271444829876,22.4495878755555
1.7103257479627075E12,1.858695652173913,-4.967391304347826,7.108695652173913,0.6017107488764225,38.18234421996406,38.78405496884048,498.0886284218584,23.899737465350327
1.7103257479822395E12,1.75,-4.967391304347826,7.293478260869565,0.6198132776991461,38.17989208458568,38.799705362284826,498.0721846904975,23.61716492380678
1.7103257480017712E12,1.7934782608695652,-4.945652173913043,7.217391304347826,0.6311363734169452,38.20686557374783,38.83800194716477,498.08343566458655,23.248190670989832
1.7103257480213032E12,1.7608695652173914,-4.945652173913043,7.271739130434782,0.6432528070512781,38.22388627813891,38.86713908519019,498.0881956920857,22.023565414376908
1.710325748040835E12,1.7826086956521738,-4.967391304347826,7.3478260869565215,0.6659711201156522,38.25886526809517,38.92483638821082,498.08199323201103,21.7107739103763
1.710325748060367E12,1.8152173913043477,-4.978260869565217,7.315217391304348,0.6924397578763674,38.35904221046474,39.05148196834111,498.0867532595102,21.585354397935202
1.7103257480798987E12,1.8152173913043477,-4.989130434782608,7.326086956521739,0.7192690037809616,38.420129230037844,39.1393982338188,498.09136904375185,21.45842033128981
1.7103257480994304E12,1.8152173913043477,-4.956521739130435,7.282608695652174,0.7309527076426396,38.48770719620076,39.218659903843395,498.0837962727304,21.827971557136962
1.7103257481189624E12,1.8152173913043477,-4.956521739130435,7.25,0.698786461208637,38.42279773030255,39.12158419151118,498.0817768671247,21.919782390568542
1.7103257481384941E12,1.8043478260869565,-4.945652173913043,7.260869565217391,0.6417382528469865,38.23895969855305,38.88069795140004,498.0785313938298,22.12821389773058
1.7103257481580261E12,1.8043478260869565,-4.934782608695652,7.282608695652174,0.6228423861077292,38.16590048860318,38.788742874710906,498.06821800091484,22.007770777675006
1.7103257481775579E12,1.8152173913043477,-4.945652173913043,7.282608695652174,0.6012780191037678,38.14339854042513,38.7446765595289,498.07377136633056,22.091431867054926
1.7103257481970898E12,1.7934782608695652,-4.978260869565217,7.315217391304348,0.5965179916045656,38.12291599785281,38.71943398945737,498.0758628935651,22.073617824747306
1.7103257482166216E12,1.8043478260869565,-5.0,7.293478260869565,0.5863488419471791,38.12493540345853,38.71128424540571,498.0852387053059,22.35229579833696
1.7103257482361536E12,1.8043478260869565,-4.989130434782608,7.380434782608695,0.578776070925721,38.13618637754755,38.71496244847327,498.08228171852613,22.196080350408597
1.7103257482556853E12,1.7826086956521738,-4.967391304347826,7.141304347826087,0.5782712195242905,38.13654698569143,38.71481820521572,498.08343566458655,21.985845802527166
1.7103257482752173E12,1.7608695652173914,-4.945652173913043,7.33695652173913,0.5800742602436854,38.13863851292593,38.718712773169614,498.0745647042471,21.34533361736937
1.710325748294749E12,1.7934782608695652,-4.945652173913043,7.304347826086956,0.5770451518351021,38.14238883762227,38.71943398945737,498.0633137301581,21.695123516931954
1.710325748314281E12,1.8043478260869565,-4.956521739130435,7.315217391304348,0.5787039492969452,38.13791729663817,38.716621245935116,498.07297802841407,21.97120511188568
1.7103257483338127E12,1.7826086956521738,-4.978260869565217,7.282608695652174,0.585339139144318,38.14188398622084,38.72722312536516,498.07052589303566,22.28601602149201
1.7103257483533447E12,1.7934782608695652,-4.989130434782608,7.260869565217391,0.5880076394090223,38.13243605285121,38.72044369226023,498.0805507994355,22.605298472082435
1.7103257483728765E12,1.8152173913043477,-4.978260869565217,7.293478260869565,0.5815888144479769,38.129983917472835,38.71157273192081,498.0716077174673,22.91138266460689
1.7103257483924084E12,1.7934782608695652,-4.967391304347826,7.293478260869565,0.5772615167214294,38.12644995766282,38.70371147438425,498.08812357045696,23.183930299750603
1.7103257484119402E12,1.8152173913043477,-4.945652173913043,7.271739130434782,0.5869258149773854,38.10510195554519,38.69202777052257,498.07261742027015,23.019492986141803
1.7103257484314722E12,1.8043478260869565,-4.934782608695652,7.260869565217391,0.5907482613025024,38.10063041456109,38.69137867586359,498.08098352920814,23.314686812721114
1.710325748451004E12,1.7934782608695652,-4.934782608695652,7.293478260869565,0.5942100994837403,38.10243345528048,38.69664355476422,498.0590585540603,23.364883466349063
1.710325748470536E12,1.7826086956521738,-4.956521739130435,7.271739130434782,0.5981767890664088,38.15356769008252,38.751744479148925,498.0667755683393,23.468017395498443
1.7103257484900676E12,1.7826086956521738,-4.967391304347826,7.293478260869565,0.6157023448589259,38.175709030116685,38.79141137497561,498.05307245887195,23.33978513953509
1.7103257485095996E12,1.7826086956521738,-4.967391304347826,7.282608695652174,0.6252223998573303,38.19373943731063,38.81896183716796,498.065910108794,23.198138260619434
1.7103257485291313E12,1.8152173913043477,-4.945652173913043,7.304347826086956,0.6282515082659136,38.13762881012307,38.76588031838898,498.0744204609896,23.29845944624656
1.7103257485486633E12,1.8043478260869565,-4.934782608695652,7.282608695652174,0.5907482613025024,38.051371342107224,38.642119603409725,498.0721846904975,23.338991801618555
1.710325748568195E12,1.8043478260869565,-4.945652173913043,7.271739130434782,0.5978161809225299,38.05497742354601,38.65279360446854,498.06764102788463,23.407507348955555
1.710325748587727E12,1.7826086956521738,-4.956521739130435,7.260869565217391,0.5963016267182383,38.058222896840924,38.65452452355916,498.0754301637924,23.468666490157425
1.7103257486072588E12,1.7826086956521738,-4.967391304347826,7.293478260869565,0.6266648324328462,37.94802104807152,38.57468588050436,498.0814162589808,23.497082411895086
1.7103257486267908E12,1.7934782608695652,-4.956521739130435,7.304347826086956,0.8256484062252529,38.1595537852709,38.98520219149616,498.0850223404196,23.17145325797239
1.7103257486463225E12,1.7717391304347825,-4.934782608695652,7.315217391304348,0.36010329247752343,39.65860183937571,40.01870513185324,498.0863205297376,22.834717373218226
1.7103257486658545E12,1.826086956521739,-4.956521739130435,7.358695652173913,0.3218067075975785,38.41197948598617,38.733786193583754,498.07889200197366,23.36221496608436
1.7103257486853862E12,1.8152173913043477,-4.989130434782608,7.054347826086956,0.6061101682317458,38.2000861406429,38.80619630887465,498.0450669580778,24.140479462203917
1.7103257487049182E12,1.7608695652173914,-4.891304347826087,7.489130434782608,0.6258714945163125,38.1476537165229,38.773525211039214,498.05833733777257,23.33358267946037
1.71032574872445E12,1.8043478260869565,-5.021739130434782,7.228260869565217,0.6485898075806865,38.12529601160241,38.77388581918309,498.07124710932345,24.40631978587148
1.710325748743982E12,1.8043478260869565,-4.945652173913043,7.141304347826087,0.6583262274654184,38.1289020930412,38.787228320506614,498.0798295831477,24.131247893720616
1.7103257487635137E12,1.7717391304347825,-4.956521739130435,7.33695652173913,0.6809724189010167,38.1405136752741,38.821486094175114,498.09115267886557,24.12309814966895
1.7103257487830454E12,1.7934782608695652,-4.934782608695652,7.206521739130435,0.6894106494677842,38.15948166364213,38.848892313109914,498.08011806966283,22.96193992637872
1.7103257488025774E12,1.7717391304347825,-4.989130434782608,7.380434782608695,0.7109750164717455,38.188041828637346,38.89901684510909,498.0592027973179,22.014622332408706
1.7103257488221091E12,1.8152173913043477,-4.967391304347826,7.293478260869565,0.7405448842698198,38.26074043044334,39.00128531471316,498.05501974284886,21.8314333953182
1.710325748841641E12,1.8369565217391304,-4.978260869565217,7.282608695652174,0.7638401703644002,38.3231256393344,39.0869658096988,498.0587700675452,21.490514456095035
1.7103257488611729E12,1.8043478260869565,-4.956521739130435,7.260869565217391,0.8030022147896546,38.40685885034309,39.20986106513275,498.0657658655365,21.75685963116403
1.7103257488807048E12,1.8043478260869565,-4.956521739130435,7.260869565217391,0.7901645648675639,38.41645102697027,39.20661559183784,498.05985189197685,21.72721764173718
1.7103257489002366E12,1.7826086956521738,-4.945652173913043,7.293478260869565,0.7365060730583756,38.261894376503754,38.998400449562126,498.08156050223835,22.14119579091022
1.7103257489197686E12,1.8152173913043477,-4.967391304347826,7.304347826086956,0.6840015273095998,38.17635812477567,38.860359652085265,498.06980467674794,22.025656941611405
1.7103257489393003E12,1.8152173913043477,-4.945652173913043,7.304347826086956,0.6736881343946618,38.12168993016362,38.79537806455828,498.0596355270905,22.03481638846593
1.7103257489588323E12,1.8369565217391304,-4.923913043478261,7.391304347826087,0.6635189847372752,38.095726143804335,38.75924512854161,498.08076716432186,21.14418639471369
1.710325748978364E12,1.7717391304347825,-4.945652173913043,7.369565217391304,0.6583262274654184,38.08995641350227,38.74828264096769,498.0685786090587,20.622170045634515
1.710325748997896E12,1.7826086956521738,-4.967391304347826,7.358695652173913,0.6441903882253633,38.10647226649193,38.75066265471729,498.03655660588225,24.02667153199572
1.7103257490174277E12,1.7608695652173914,-5.010869565217392,7.315217391304348,0.6441182665965876,38.100702536189864,38.74482080278645,498.0477354583425,25.16352476638851
1.7103257490369597E12,1.75,-4.978260869565217,7.228260869565217,0.6615717007603289,38.102072847136604,38.76364454789693,498.0504039586072,24.593908142317314
1.7103257490564915E12,1.7282608695652173,-4.967391304347826,7.33695652173913,0.656018335344593,38.10459710414376,38.76061543948835,498.0786756370873,24.956896299945868
1.7103257490760234E12,1.7826086956521738,-4.956521739130435,7.293478260869565,0.6631583765933963,38.10048617130354,38.76364454789693,498.098725449887,25.592936944119568
1.7103257490955552E12,1.7826086956521738,-4.945652173913043,7.315217391304348,0.6677020392062711,38.088513980926756,38.756216020133024,498.0778822991708,25.89584778497789
1.7103257491150872E12,1.7826086956521738,-4.967391304347826,7.315217391304348,0.6713081206450606,38.08360971017,38.75491783081506,498.0745647042471,26.330741206495908
1.710325749134619E12,1.7934782608695652,-4.934782608695652,7.33695652173913,0.665682633600549,38.07322419562629,38.738906829226835,498.093893300759,26.841722946372386
1.710325749154151E12,1.8152173913043477,-4.967391304347826,7.3478260869565215,0.6677741608350469,38.0740896551716,38.74186381600664,498.04910576928927,27.12451185280226
1.7103257491736826E12,1.826086956521739,-4.934782608695652,7.304347826086956,0.6594080518970552,38.074810871459356,38.73421892335641,498.0755022854212,27.260461123044628
1.7103257491932146E12,1.8043478260869565,-4.934782608695652,7.271739130434782,0.6586147139805215,38.07401753354282,38.73263224752334,498.0817768671247,27.14146043556457
1.7103257492127463E12,1.7934782608695652,-4.934782608695652,7.304347826086956,0.6671250661760648,38.07163751979322,38.73876258596928,498.08213747526855,26.686156593103004
1.7103257492322783E12,1.8043478260869565,-4.934782608695652,7.260869565217391,0.6671971878048406,38.08743215649512,38.75462934429996,498.07506955564855,26.562251634866197
1.71032574925181E12,1.8152173913043477,-4.934782608695652,7.293478260869565,0.6834245542793935,38.1449852162582,38.82840977053759,498.0531445805007,26.420244147806663
1.710325749271342E12,1.7934782608695652,-4.956521739130435,7.326086956521739,0.6782317970075366,38.176069638260564,38.8543014352681,498.0719683256112,26.07730580297778
1.7103257492908738E12,1.7934782608695652,-4.934782608695652,7.315217391304348,0.6861651761728735,38.15234162239333,38.8385067985662,498.0757907719363,25.92873524769965
1.7103257493104058E12,1.7717391304347825,-4.934782608695652,7.33695652173913,0.6524843755345793,38.046394949721694,38.69887932525627,498.07110286606587,25.66037066702493
1.7103257493299375E12,1.7826086956521738,-4.945652173913043,7.315217391304348,0.6417382528469865,38.042788868282905,38.68452712112989,498.0626646354991,25.597841214876322
1.7103257493494695E12,1.7826086956521738,-4.923913043478261,7.260869565217391,0.6374830767492148,38.04300523316923,38.680488309918445,498.0606452298934,25.309066213258056
1.7103257493690012E12,1.7717391304347825,-4.934782608695652,7.271739130434782,0.6282515082659136,38.04307735479801,38.67132886306392,498.06937194697525,25.08159459609921
1.7103257493885332E12,1.75,-4.945652173913043,7.304347826086956,0.7127780571911404,37.9233554510302,38.636133508221334,498.08696962439654,24.648143607156708
1.710325749408065E12,1.7391304347826086,-4.945652173913043,7.315217391304348,0.6443346314829149,39.69422992399096,40.33856455547387,498.0871138676541,23.583844731312364
1.710325749427597E12,1.7826086956521738,-4.967391304347826,7.33695652173913,0.27543250029474503,38.812038160805486,39.087470661100234,498.07211256886876,23.543600862455474
1.7103257494471287E12,1.7717391304347825,-4.956521739130435,7.25,0.5833918551673717,38.27444353991074,38.85783539507811,498.0705980146644,23.568410702754345
1.7103257494666606E12,1.7934782608695652,-4.891304347826087,7.260869565217391,0.6211114670171103,38.186671517690606,38.807782984707714,498.07204044723994,22.55228907493223
1.7103257494861924E12,1.7065217391304348,-4.956521739130435,7.423913043478261,0.6380600497794211,38.165251393944196,38.803311443723615,498.0909363139792,21.68300708329762
1.710325749505724E12,1.8369565217391304,-4.913043478260869,7.032608695652174,0.6437576584527086,38.16741504280747,38.811172701260176,498.08668113788144,21.785996769189452
1.710325749525256E12,1.7717391304347825,-4.934782608695652,7.271739130434782,0.6683511338652532,38.18768122049347,38.85603235435872,498.094542395418,21.04328823605636
1.7103257495447878E12,1.826086956521739,-4.934782608695652,7.184782608695652,0.6766451211744692,38.20542314117231,38.88206826234678,498.07910836686,20.409555484003484
1.7103257495643198E12,1.8043478260869565,-4.967391304347826,7.271739130434782,0.6850112301124609,38.232612995220784,38.91762422533324,498.0864647729951,19.157884616599635
1.7103257495838516E12,1.8043478260869565,-4.978260869565217,7.326086956521739,0.700156772155377,38.297522461118994,38.99767923327437,498.0833635429578,18.950751298755563
1.7103257496033835E12,1.8369565217391304,-4.956521739130435,7.271739130434782,0.727418747832626,38.358609480692095,39.08602822852472,498.08314717807144,18.75869140132563
1.7103257496229153E12,1.8369565217391304,-4.945652173913043,7.260869565217391,0.7651383596823644,38.453737909047355,39.21887626872972,498.08019019129165,19.117280139598865
1.7103257496424473E12,1.8043478260869565,-4.945652173913043,7.217391304347826,0.7731438604764772,38.49556845373731,39.26871231421379,498.05956340546174,19.31373945638412
1.710325749661979E12,1.7934782608695652,-4.934782608695652,7.239130434782608,0.7171774765464636,38.39726667371592,39.11444415026238,498.09122480049433,20.246704846227747
1.710325749681511E12,1.8043478260869565,-4.913043478260869,7.293478260869565,0.6664759715170827,38.30278734001963,38.96926331153671,498.08401263761675,20.180641434269123
1.7103257497010427E12,1.7934782608695652,-4.945652173913043,7.293478260869565,0.6475801047778255,38.219919588556245,38.86749969333407,498.0909363139792,19.942640059309014
1.7103257497205747E12,1.7934782608695652,-4.934782608695652,7.315217391304348,0.6252223998573303,38.182921192994264,38.80814359285159,498.0848059755333,19.181540510838094
1.7103257497401064E12,1.7826086956521738,-4.956521739130435,7.33695652173913,0.6183708451236303,38.179315111555475,38.7976859566791,498.0824980834125,18.69998439550214
1.7103257497596384E12,1.7826086956521738,-4.956521739130435,7.304347826086956,0.6088507901252258,38.17671873291955,38.78556952304477,498.0782429073147,18.557688421927505
1.7103257497791702E12,1.7934782608695652,-4.945652173913043,7.391304347826087,0.5999077081570278,38.179315111555475,38.7792228197125,498.0920181384109,18.0104295027768
1.7103257497987021E12,1.7717391304347825,-4.967391304347826,7.184782608695652,0.6015665056188709,38.20138432996087,38.802950835579736,498.0847338539045,17.005126119271054
1.710325749818234E12,1.75,-4.891304347826087,7.304347826086956,0.6184429667524061,38.199509167612696,38.8179521343651,498.08134413735206,16.352641743736477
1.7103257498377659E12,1.7608695652173914,-4.913043478260869,7.33695652173913,0.6095720064129837,38.21898200738216,38.82855401379514,498.08098352920814,17.085902343499942
1.7103257498572976E12,1.8043478260869565,-4.923913043478261,7.315217391304348,0.6132502094805491,38.21739533154909,38.83064554102964,498.08754659742675,17.63972433086924
1.7103257498768296E12,1.8152173913043477,-4.967391304347826,7.33695652173913,0.6208229805020071,38.21011104704274,38.83093402754474,498.08163262386716,18.41315667786082
1.7103257498963613E12,1.8152173913043477,-4.967391304347826,7.33695652173913,0.6224817779638503,38.20917346586865,38.8316552438325,498.0871859892829,19.41975825068453
1.7103257499158933E12,1.8152173913043477,-4.945652173913043,7.33695652173913,0.6349588197420621,38.19691278897677,38.83187160871883,498.0951193684482,20.42297010695578
1.710325749935425E12,1.8152173913043477,-4.923913043478261,7.271739130434782,0.6259436161450883,38.18760909886469,38.81355271500978,498.0965618010237,20.95840107898725
1.710325749954957E12,1.7934782608695652,-4.923913043478261,7.271739130434782,0.630847886901842,38.19309034265165,38.82393822955349,498.07744956939814,21.016242625265434
1.7103257499744888E12,1.8152173913043477,-4.923913043478261,7.326086956521739,0.6291890894399988,38.18681576094816,38.816004850388154,498.04521120133535,21.086128483549178
1.7103257499940208E12,1.8152173913043477,-4.945652173913043,7.282608695652174,0.6286121164097925,38.21703472340521,38.845646839815004,498.04210997129803,21.363436146192093
1.7103257500135525E12,1.7934782608695652,-4.967391304347826,7.315217391304348,0.6521237673907003,38.263913782109476,38.916037549500174,498.0682901225436,21.567107625854927
1.7103257500330845E12,1.8043478260869565,-4.967391304347826,7.315217391304348,0.6424594691347444,38.290310298241415,38.93276976737616,498.0848059755333,21.61384244130164
1.7103257500526162E12,1.8043478260869565,-4.956521739130435,7.293478260869565,0.6614274575027773,38.25186947010392,38.913296927606694,498.07405985284566,22.004236817864992
1.7103257500721482E12,1.7826086956521738,-4.934782608695652,7.304347826086956,0.6371945902341116,38.14354278368268,38.78073737391679,498.0768004747392,22.007482291159903
1.71032575009168E12,1.7934782608695652,-4.945652173913043,7.304347826086956,0.6062544114892974,38.15342344682497,38.75967785831426,498.07405985284566,22.310032523874348
1.710325750111212E12,1.8152173913043477,-4.923913043478261,7.260869565217391,0.6199575209566976,38.13258029610876,38.75253781706546,498.0757907719363,22.303397334026975
1.7103257501307437E12,1.7717391304347825,-4.945652173913043,7.260869565217391,0.612601114821567,38.129623309328956,38.74222442415052,498.0695883118616,22.497837245206505
1.7103257501502756E12,1.7717391304347825,-4.967391304347826,7.304347826086956,0.6927282443914705,37.98913037647372,38.681858620865185,498.06367433830195,22.590513538183398
1.7103257501698074E12,1.7934782608695652,-4.945652173913043,7.33695652173913,0.6374830767492148,39.76108667386612,40.39856975061533,498.07420409610324,21.93060063488491
1.7103257501893394E12,1.7934782608695652,-4.934782608695652,7.380434782608695,0.23901107776297068,39.089490066705956,39.32850114446892,498.07405985284566,22.39737181632183
1.710325750208871E12,1.8043478260869565,-4.989130434782608,7.25,0.5660105426324061,38.37224046853071,38.93825101116312,498.06143856780994,23.39236180691264
1.7103257502284028E12,1.8043478260869565,-4.880434782608695,7.217391304347826,0.60877866849645,38.26362529559437,38.87240396409082,498.0638907031883,23.29485336480777
1.7103257502479348E12,1.717391304347826,-4.989130434782608,7.489130434782608,0.6247896700846756,38.2272038730626,38.85199354314727,498.07564652867876,22.985812185503505
1.7103257502674666E12,1.8478260869565217,-4.956521739130435,7.0978260869565215,0.6330836573938915,38.22374203488136,38.85682569227525,498.06014037849195,23.870311840809805
1.7103257502869985E12,1.7717391304347825,-4.956521739130435,7.304347826086956,0.6486619292094623,38.23845484715162,38.88711677636108,498.07182408235366,23.849540811722377
1.7103257503065303E12,1.7934782608695652,-4.934782608695652,7.228260869565217,0.6446231179980181,38.253672510823314,38.89829562882133,498.08841205697206,23.697219931747906
1.7103257503260623E12,1.7934782608695652,-4.945652173913043,7.260869565217391,0.6720293369328185,38.26910653938133,38.94113587631415,498.0814162589808,22.502453029448155
1.710325750345594E12,1.7934782608695652,-4.967391304347826,7.326086956521739,0.6889779196951294,38.33394388365077,39.022921803345895,498.0660543520516,21.988947032564525
1.710325750365126E12,1.8043478260869565,-4.967391304347826,7.293478260869565,0.7145089762817594,38.39661757905694,39.11112655533869,498.08257020504124,21.59739870994076
1.7103257503846577E12,1.8152173913043477,-4.978260869565217,7.33695652173913,0.7452327901402462,38.49542421047977,39.24065700062001,498.07420409610324,21.50739091722857
1.7103257504041897E12,1.8152173913043477,-4.945652173913043,7.260869565217391,0.7523007097602737,38.530114713920916,39.28241542368119,498.05307245887195,21.51647824245432
1.7103257504237214E12,1.7826086956521738,-4.934782608695652,7.271739130434782,0.7067919620027497,38.422004392386015,39.12879635438876,498.03900874126066,21.938894622194127
1.7103257504432534E12,1.7934782608695652,-4.923913043478261,7.282608695652174,0.6614274575027773,38.31007162452598,38.97149908202876,498.05833733777257,21.936658851702077
1.7103257504627852E12,1.7934782608695652,-4.956521739130435,7.282608695652174,0.6452722126570002,38.22330930510871,38.868581517765705,498.0606452298934,21.831866125090855
1.7103257504823171E12,1.8043478260869565,-4.945652173913043,7.304347826086956,0.6134665743668765,38.18270482810794,38.79617140247481,498.0626646354991,22.118477477845847
1.7103257505018489E12,1.826086956521739,-4.945652173913043,7.315217391304348,0.6032253030807142,38.17938723318425,38.78261253626496,498.0605009866358,21.957646245675832
1.7103257505213809E12,1.7826086956521738,-5.0,7.271739130434782,0.6003404379296825,38.18457999045611,38.78492042838579,498.0659822304228,22.228462961728926
1.7103257505409126E12,1.8043478260869565,-4.956521739130435,7.369565217391304,0.6027925733080595,38.18270482810794,38.785497401415995,498.0651888925063,21.992697357260866
1.7103257505604446E12,1.7934782608695652,-4.945652173913043,7.1521739130434785,0.5963016267182383,38.196768545719216,38.79307017243745,498.0584815810301,21.752965063210137
1.7103257505799763E12,1.7717391304347825,-4.956521739130435,7.33695652173913,0.5877191528939192,38.20491828977088,38.7926374426648,498.05617368890927,21.278981718895643
1.7103257505995083E12,1.7826086956521738,-4.945652173913043,7.326086956521739,0.5872864231212644,38.21299591219377,38.80028233531503,498.07716108288304,21.960458989198088
1.71032575061904E12,1.8043478260869565,-4.923913043478261,7.315217391304348,0.5864209635759549,38.216313507117455,38.80273447069341,498.07232893375505,21.926417580415915
1.710325750638572E12,1.7826086956521738,-4.967391304347826,7.293478260869565,0.5872864231212644,38.20715406026293,38.79444048338419,498.0884841786008,22.235530881348954
1.7103257506581038E12,1.7826086956521738,-4.956521739130435,7.304347826086956,0.5716360296769178,38.21400561499663,38.78564164467355,498.06735254136953,22.434947184914016
1.7103257506776357E12,1.8043478260869565,-4.967391304347826,7.293478260869565,0.5691117726697651,38.20477404651333,38.77388581918309,498.0881956920857,22.7597108792914
1.7103257506971675E12,1.8043478260869565,-4.967391304347826,7.304347826086956,0.5706984485028325,38.17542054360158,38.746118992104414,498.09353269261516,22.87936066143044
1.7103257507166995E12,1.8043478260869565,-4.945652173913043,7.271739130434782,0.5551201766872617,38.18587817977407,38.74099835646133,498.0789641236024,22.91946028702978
1.7103257507362312E12,1.8043478260869565,-4.934782608695652,7.271739130434782,0.5704820836165051,38.16416956951256,38.73465165312906,498.06396282481705,22.981845495920837
1.7103257507557632E12,1.7826086956521738,-4.945652173913043,7.304347826086956,0.5647844749432177,38.177079341063425,38.74186381600664,498.0349699300492,22.99807286239539
1.710325750775295E12,1.8043478260869565,-4.945652173913043,7.293478260869565,0.5707705701316083,38.17289628659443,38.74366685672604,498.0110976709244,23.112962617035226
1.710325750794827E12,1.8043478260869565,-4.978260869565217,7.293478260869565,0.569472380813644,38.26449075513968,38.833963135953326,498.046293025767,22.73901197183275
1.7103257508143586E12,1.8043478260869565,-4.956521739130435,7.271739130434782,0.5907482613025024,38.266149552601526,38.85689781390403,498.0736992447018,22.913906921614043
1.7103257508338906E12,1.8043478260869565,-4.967391304347826,7.293478260869565,0.5696166240711956,38.28223267581853,38.85184929988972,498.0535051886446,22.81784091208469
1.7103257508534224E12,1.7934782608695652,-4.923913043478261,7.304347826086956,0.5721408810783484,38.219054129010935,38.79119501008928,498.0576882431136,23.045312529243535
1.7103257508729543E12,1.8043478260869565,-4.934782608695652,7.282608695652174,0.5170399566936442,38.15558709568824,38.672627052381884,498.0589143108028,23.008458376939103
1.710325750892486E12,1.7934782608695652,-4.945652173913043,7.282608695652174,0.5151647943454736,38.14895190584087,38.66411670018634,498.0698767983767,23.276750835985048
1.710325750912018E12,1.7826086956521738,-4.934782608695652,7.293478260869565,0.5194920920720211,38.14426399997044,38.66375609204246,498.09822059848557,23.45142942088001
1.7103257509315498E12,1.7717391304347825,-4.967391304347826,7.282608695652174,0.5338442961984035,38.04026461127575,38.574108907474155,498.09721089568274,23.218981411335637
1.7103257509510815E12,1.7934782608695652,-4.945652173913043,7.326086956521739,0.7545364802523232,38.33271781596158,39.08725429621391,498.0972830173115,23.133228794721223
1.7103257509706135E12,1.7826086956521738,-4.945652173913043,7.33695652173913,0.23432317189254429,39.63876839146238,39.87309156335492,498.09923030128846,22.555101818454485
1.7103257509901453E12,1.8043478260869565,-4.934782608695652,7.358695652173913,0.2543008630634383,38.48864477737484,38.74294564043828,498.0836520294729,23.38500540077751
1.7103257510096772E12,1.8043478260869565,-4.967391304347826,7.108695652173913,0.5046350365442082,38.30870131357924,38.81333635012345,498.08934963814613,23.780376169726395
1.710325751029209E12,1.75,-4.913043478260869,7.5,0.5401188779018972,38.25360038919454,38.793719267096435,498.07095862280835,23.322043218856244
1.710325751048741E12,1.8152173913043477,-5.010869565217392,7.217391304347826,0.544662540514772,38.24999430775575,38.79465684827052,498.06879497394505,23.946832888940918
1.7103257510682727E12,1.8152173913043477,-4.923913043478261,7.163043478260869,0.5531728927103153,38.25352826756576,38.80670116027608,498.08257020504124,23.97178697249734
1.7103257510878047E12,1.75,-4.945652173913043,7.3478260869565215,0.5606014204742218,38.26542833631377,38.82602975678799,498.08047867780675,24.100596201490905
1.7103257511073364E12,1.8152173913043477,-4.945652173913043,7.217391304347826,0.5811560846753222,38.29211333896081,38.87326942363613,498.08841205697206,23.09954799408293
1.7103257511268684E12,1.7717391304347825,-4.967391304347826,7.33695652173913,0.5923349371355697,38.325794139599104,38.91812907673467,498.0789641236024,22.26784137104051
1.7103257511464001E12,1.8369565217391304,-4.967391304347826,7.315217391304348,0.6199575209566976,38.39647333579938,39.016430856756074,498.0757907719363,21.894684063754568
1.7103257511659321E12,1.8152173913043477,-4.978260869565217,7.293478260869565,0.6550807541705077,38.46650343734068,39.12158419151118,498.06540525739257,21.661731202808763
1.7103257511854639E12,1.8043478260869565,-4.967391304347826,7.315217391304348,0.6835687975369451,38.558530635658585,39.24209943319553,498.04622090413824,21.80936417691281
1.7103257512049958E12,1.7934782608695652,-4.967391304347826,7.282608695652174,0.6638074712523784,38.554924554219795,39.21873202547217,498.0566785403107,21.960891718970743
1.7103257512245276E12,1.7826086956521738,-4.923913043478261,7.282608695652174,0.6231308726228324,38.46563797779537,39.0887688504182,498.06187129758257,21.903266537578887
1.7103257512440596E12,1.7934782608695652,-4.923913043478261,7.293478260869565,0.5709148133891598,38.30826858380659,38.879183397195746,498.0451390797066,22.200263404877592
1.7103257512635913E12,1.7934782608695652,-4.934782608695652,7.304347826086956,0.5420661618788436,38.26723137703316,38.809297538912006,498.05747187822726,21.965435381583617
1.7103257512831233E12,1.8043478260869565,-4.967391304347826,7.282608695652174,0.5280024442675644,38.247325807491045,38.77532825175861,498.0685786090587,22.219447758131952
1.710325751302655E12,1.7826086956521738,-5.0,7.293478260869565,0.5269206198359275,38.24191668533286,38.76883730516879,498.0586258242877,22.132036344055695
1.710325751322187E12,1.7934782608695652,-4.945652173913043,7.358695652173913,0.5346376341149371,38.24249365836307,38.777131292478,498.05869794591644,22.491706906760562
1.7103257513417188E12,1.7934782608695652,-4.989130434782608,7.239130434782608,0.526055160290618,38.25583615968659,38.781891319977206,498.07405985284566,22.378908679355227
1.7103257513612507E12,1.7826086956521738,-4.956521739130435,7.239130434782608,0.5202854299885548,38.27004412055542,38.79032955054397,498.06482828436236,21.836265544446178
1.7103257513807825E12,1.7717391304347825,-4.9021739130434785,7.369565217391304,0.5269206198359275,38.275741729228706,38.80266234906463,498.0532167021295,22.153672832688432
1.7103257514003145E12,1.8152173913043477,-4.934782608695652,7.304347826086956,0.5254781872604117,38.284324203053025,38.809802390313436,498.04283118758576,22.12511266769322
1.7103257514198462E12,1.7934782608695652,-4.956521739130435,7.326086956521739,0.533988539455955,38.28028539184158,38.814273931297535,498.04268694432824,22.59375901147831
1.7103257514393782E12,1.7934782608695652,-4.978260869565217,7.293478260869565,0.5409843374472068,38.271630796388486,38.81261513383569,498.04881728277417,22.597220849659546
1.71032575145891E12,1.8152173913043477,-4.967391304347826,7.3478260869565215,0.5393255399853635,38.270981701729504,38.81030724171487,498.0552361077352,23.080580005714896
1.710325751478442E12,1.7934782608695652,-4.945652173913043,7.304347826086956,0.526415768434497,38.273073228964,38.7994889973985,498.06316948690056,23.19171943565839
1.7103257514979736E12,1.7934782608695652,-4.923913043478261,7.260869565217391,0.5259830386618423,38.273361715479105,38.79934475414095,498.05588520239417,23.435562662549337
1.7103257515175056E12,1.7717391304347825,-4.913043478260869,7.25,0.5249012142302054,38.26449075513968,38.78939196936989,498.0311474837241,23.37916354884667
1.7103257515370374E12,1.7717391304347825,-4.934782608695652,7.293478260869565,0.5313921608200265,38.26023557904191,38.79162773986194,498.0543706481899,23.57894046055561
1.7103257515565693E12,1.7934782608695652,-4.956521739130435,7.271739130434782,0.5337000529408519,38.24263790162062,38.77633795456147,498.06410706807463,23.458425218871263
1.710325751576101E12,1.7826086956521738,-4.978260869565217,7.293478260869565,0.5274254712373581,38.24790278052125,38.77532825175861,498.04182148478293,23.405127335205954
1.710325751595633E12,1.7826086956521738,-4.989130434782608,7.282608695652174,0.5262715251769454,38.2635531739656,38.78982469914254,498.05545247262154,23.071853288633026
1.7103257516151648E12,1.7934782608695652,-4.967391304347826,7.315217391304348,0.532618228509215,38.32435170702359,38.8569699355328,498.07052589303566,23.064208395982792
1.7103257516346968E12,1.7826086956521738,-4.945652173913043,7.293478260869565,0.550215905930508,38.33581904599894,38.886034951929446,498.0579046079999,22.938139788882708
1.7103257516542285E12,1.7826086956521738,-4.945652173913043,7.315217391304348,0.561899609792186,38.313605584335996,38.87550519412818,498.06908346046015,22.983071563610025
1.7103257516737603E12,1.7826086956521738,-4.945652173913043,7.326086956521739,0.5437249593406868,38.27321747222155,38.81694243156224,498.06259251387036,23.2929782024596
1.7103257516932922E12,1.7934782608695652,-4.945652173913043,7.326086956521739,0.5142272131713883,38.214582588026836,38.728809801198224,498.07110286606587,23.3224759486289
1.710325751712824E12,1.7934782608695652,-4.967391304347826,7.282608695652174,0.516030253890783,38.20232191113495,38.718352165025735,498.07910836686,23.507540048067575
1.710325751732356E12,1.8152173913043477,-4.956521739130435,7.315217391304348,0.5193478488144695,38.21277954730744,38.73212739612191,498.0677131495134,23.288290296589174
1.7103257517518877E12,1.7717391304347825,-4.945652173913043,7.315217391304348,0.5568510957778807,38.07336843888384,38.63021953466172,498.0721846904975,23.79876718506422
1.7103257517714197E12,1.7826086956521738,-4.956521739130435,7.3478260869565215,0.6532055918223372,39.47800928092114,40.13121487274348,498.07622350170897,23.417460133726614
1.7103257517909514E12,1.7934782608695652,-4.913043478260869,7.369565217391304,0.18996837019543295,39.432067803390964,39.622036173586395,498.0796853398902,23.944452875191317
1.7103257518104834E12,1.8043478260869565,-4.945652173913043,7.3478260869565215,0.4361916108359827,38.47501378953621,38.9112054003722,498.0722568121263,25.013656021792418
1.7103257518300151E12,1.8043478260869565,-4.934782608695652,7.195652173913043,0.5097556721872893,38.361566467471896,38.871322139659185,498.0827865699276,25.478840527396265
1.710325751849547E12,1.7717391304347825,-4.945652173913043,7.554347826086956,0.5337721745696277,38.323053517705624,38.85682569227525,498.0677131495134,25.472205337548893
1.7103257518690789E12,1.8478260869565217,-5.010869565217392,7.0978260869565215,0.5512977303621448,38.30697039448862,38.85826812485077,498.0757907719363,25.85041115884914
1.7103257518886108E12,1.7608695652173914,-4.9021739130434785,7.260869565217391,0.5588705013836028,38.32363049073583,38.88250099211943,498.07290590678525,25.46405559349723
1.7103257519081426E12,1.75,-4.913043478260869,7.293478260869565,0.5779827330091873,38.33156386990117,38.90954660291035,498.07146347420974,25.06378055379159
1.7103257519276746E12,1.8043478260869565,-4.934782608695652,7.25,0.6005568028160099,38.34353606027795,38.94409286309396,498.0757907719363,24.14386917875638
1.7103257519472063E12,1.7608695652173914,-4.989130434782608,7.391304347826087,0.6241405754256935,38.400295782124495,39.02443635755019,498.09439815216047,24.037561897940865
1.7103257519667383E12,1.8043478260869565,-4.978260869565217,7.358695652173913,0.643974023339036,38.46282523427311,39.106799257612145,498.08040655617793,24.50714582290004
1.71032575198627E12,1.8152173913043477,-4.978260869565217,7.304347826086956,0.6742651074248681,38.53956264729055,39.21382775471542,498.08906115163103,24.504188836120232
1.710325752005802E12,1.7826086956521738,-4.956521739130435,7.260869565217391,0.7023204210186507,38.60894365417286,39.31126407519151,498.0829308131851,24.62138648288089
1.7103257520253337E12,1.7934782608695652,-4.923913043478261,7.217391304347826,0.681188783787344,38.59762055845506,39.278809342242404,498.0840847592455,24.439639978365896
1.7103257520448657E12,1.7934782608695652,-4.9021739130434785,7.304347826086956,0.6098604929280869,38.44486694870793,39.05472744163602,498.08668113788144,24.662712176169418
1.7103257520643975E12,1.8043478260869565,-4.923913043478261,7.33695652173913,0.5799300169861338,38.35132519618573,38.931255213171866,498.0963454361374,24.92891310798086
1.7103257520839294E12,1.8152173913043477,-4.956521739130435,7.33695652173913,0.5586541364972755,38.29644063668736,38.85509477318463,498.0747089475047,24.915354241771013
1.7103257521034612E12,1.7934782608695652,-4.967391304347826,7.358695652173913,0.54812437869601,38.31108132732884,38.85920570602485,498.0757907719363,24.150432246974976
1.7103257521229932E12,1.7717391304347825,-5.032608695652174,7.271739130434782,0.5411285807047583,38.30545584028433,38.84658442098909,498.0749974340198,23.926638832883697
1.710325752142525E12,1.8043478260869565,-4.934782608695652,7.271739130434782,0.550215905930508,38.29622427180103,38.84644017773154,498.09281147632737,23.790689562641333
1.710325752162057E12,1.8043478260869565,-4.978260869565217,7.173913043478261,0.5465377028629426,38.294421231081635,38.84095893394458,498.09021509769144,23.408517051758416
1.7103257521815886E12,1.7608695652173914,-4.945652173913043,7.217391304347826,0.5489898382413195,38.30091217767146,38.849902015912775,498.08192111038227,22.551495737015696
1.7103257522011206E12,1.7608695652173914,-4.956521739130435,7.3478260869565215,0.5535335008541943,38.30697039448862,38.860503895342816,498.0722568121263,22.68297346627396
1.7103257522206523E12,1.7826086956521738,-4.945652173913043,7.304347826086956,0.5572117039217597,38.31951955789561,38.87673126181737,498.0853108269347,23.080435762457345
1.7103257522401843E12,1.7826086956521738,-4.956521739130435,7.271739130434782,0.5511534871045932,38.31468740876763,38.865840895872225,498.08163262386716,23.154144067066202
1.710325752259716E12,1.7826086956521738,-4.956521739130435,7.315217391304348,0.5467540677492699,38.31750015228989,38.86425422003916,498.0786756370873,23.811027861956106
1.710325752279248E12,1.7934782608695652,-4.945652173913043,7.282608695652174,0.5361521883192287,38.31980804441071,38.85596023272994,498.0646119194761,23.910555709666696
1.7103257522987798E12,1.7826086956521738,-4.956521739130435,7.195652173913043,0.5505043924456111,38.29817155577798,38.84867594822359,498.06338585178685,23.87348519247594
1.7103257523183118E12,1.7717391304347825,-4.923913043478261,7.239130434782608,0.5468983110068215,38.289805446839985,38.836703757846806,498.0649004059912,23.316057123667854
1.7103257523378435E12,1.7717391304347825,-4.956521739130435,7.239130434782608,0.538460080440054,38.28540602748466,38.823866107924715,498.0805507994355,22.956747169106862
1.7103257523573755E12,1.7934782608695652,-4.956521739130435,7.239130434782608,0.5341327827135066,38.27819386460708,38.81232664732059,498.0811277724657,23.17541994755506
1.7103257523769072E12,1.826086956521739,-4.967391304347826,7.271739130434782,0.5339164178271792,38.27206352616114,38.80597994398832,498.0886284218584,23.311224974539876
1.710325752396439E12,1.8043478260869565,-4.956521739130435,7.293478260869565,0.5433643511968078,38.347719114746944,38.89108346594375,498.09266723306985,23.35824827650169
1.710325752415971E12,1.8043478260869565,-4.945652173913043,7.271739130434782,0.5530286494527638,38.358825845578416,38.91185449503118,498.1019709231819,23.161933202973987
1.7103257524355027E12,1.7934782608695652,-4.923913043478261,7.271739130434782,0.5554807848311406,38.36546103542579,38.92094182025693,498.08668113788144,23.066516288103617
1.7103257524550347E12,1.8043478260869565,-4.934782608695652,7.228260869565217,0.5543989603995038,38.29175273081693,38.846151691216434,498.0776659342845,22.438913874496684
1.7103257524745664E12,1.8152173913043477,-4.913043478260869,7.25,0.5228096869957074,38.240474252757345,38.76328393975305,498.0754301637924,22.223486569343397
1.7103257524940984E12,1.7934782608695652,-4.945652173913043,7.260869565217391,0.5228818086244832,38.23679604968978,38.75967785831426,498.0850223404196,21.50804001188755
1.7103257525136301E12,1.7826086956521738,-4.945652173913043,7.239130434782608,0.530526701274717,38.2274923595777,38.75801906085242,498.07038164977814,21.33473173793933
1.710325752533162E12,1.7826086956521738,-4.956521739130435,7.282608695652174,0.5699772322150746,38.10697711789336,38.67695435010843,498.0508366883799,20.70965358133955
1.7103257525526938E12,1.7608695652173914,-4.978260869565217,7.326086956521739,0.7528055611617043,38.63743169753929,39.390237258701,498.06338585178685,20.196508192599797
1.7103257525722258E12,1.7826086956521738,-4.967391304347826,7.358695652173913,0.22429826549270934,39.22983875630364,39.45413702179635,498.071391352581,19.702402913856854
1.7103257525917576E12,1.7934782608695652,-4.934782608695652,7.4021739130434785,0.294400488662778,38.46758526177231,38.76198575043509,498.0805507994355,20.23704054797179
1.7103257526112896E12,1.7826086956521738,-4.978260869565217,7.239130434782608,0.5037695769988987,38.40700309360064,38.91077267059954,498.0848059755333,20.8486319599905
1.7103257526308213E12,1.7608695652173914,-4.858695652173913,7.3478260869565215,0.533988539455955,38.33199659967382,38.865985139129776,498.08430112413185,20.30750337928574
1.7103257526503533E12,1.7934782608695652,-5.043478260869565,7.25,0.5443740539996689,38.32514504494012,38.86951909893979,498.0764398665953,20.59880263791116
1.710325752669885E12,1.7826086956521738,-4.913043478260869,7.163043478260869,0.5609620286181007,38.33286205921913,38.89382408783723,498.086825381139,20.53454226667193
1.710325752689417E12,1.7826086956521738,-4.967391304347826,7.260869565217391,0.5759633274034652,38.34057907349814,38.916542400901605,498.06966043349036,20.408690024458174
1.7103257527089487E12,1.8043478260869565,-4.945652173913043,7.282608695652174,0.5824542739932864,38.3687065087207,38.951160782713984,498.1026921394697,20.077795991634847
1.7103257527284807E12,1.8152173913043477,-4.967391304347826,7.271739130434782,0.6089229117540016,38.40007941723817,39.00900232899217,498.07658410985283,19.837126116410033
1.7103257527480125E12,1.7717391304347825,-4.956521739130435,7.326086956521739,0.6264484675465188,38.43419294764912,39.06064141519564,498.09223450329716,19.470531877342687
1.7103257527675444E12,1.7934782608695652,-4.956521739130435,7.315217391304348,0.6662596066307553,38.543601458501996,39.20986106513275,498.0898544895476,19.237002043366676
1.7103257527870762E12,1.8043478260869565,-4.945652173913043,7.33695652173913,0.691862784846161,38.589542936032174,39.28140572087833,498.08076716432186,19.38622169330379
1.7103257528066082E12,1.7717391304347825,-4.956521739130435,7.282608695652174,0.6741208641673165,38.588677476486865,39.26279834065418,498.0448505931915,19.869003876328932
1.71032575282614E12,1.7934782608695652,-4.934782608695652,7.282608695652174,0.6251502782285545,38.48323565521666,39.10838593344521,498.06792951439974,20.21648588377069
1.7103257528456719E12,1.7934782608695652,-4.923913043478261,7.271739130434782,0.5474752840370278,38.358681602320864,38.90615688635789,498.07290590678525,20.64077742585867
1.7103257528652036E12,1.7934782608695652,-4.934782608695652,7.315217391304348,0.5503601491880595,38.304878867254125,38.855239016442184,498.08228171852613,20.980398175763867
1.7103257528847356E12,1.7826086956521738,-4.956521739130435,7.33695652173913,0.5300218498732865,38.29499820411184,38.82502005398513,498.0603567433783,21.518497648060045
1.7103257529042673E12,1.7934782608695652,-4.989130434782608,7.326086956521739,0.5402631211594487,38.27566960759993,38.81593272875938,498.07903624523124,21.904636848525627
1.7103257529237993E12,1.7717391304347825,-4.913043478260869,7.369565217391304,0.5373782560084172,38.274371418281966,38.81174967429038,498.07463682587587,22.124030843261583
1.710325752943331E12,1.7934782608695652,-4.956521739130435,7.293478260869565,0.5290842686992012,38.28490117608323,38.81398544478243,498.0664870818242,22.77882311091699
1.710325752962863E12,1.75,-4.978260869565217,7.217391304347826,0.5342770259710582,38.27877083763729,38.81304786360835,498.0592027973179,21.911488403259327
1.7103257529823948E12,1.7608695652173914,-4.923913043478261,7.315217391304348,0.5424267700227225,38.281583581159545,38.82401035118227,498.0617991759538,21.800565338202162
1.7103257530019268E12,1.7934782608695652,-4.945652173913043,7.33695652173913,0.5514419736196964,38.28504541934078,38.83648739296048,498.05206275606906,21.56018394949245
1.7103257530214585E12,1.7826086956521738,-4.967391304347826,7.326086956521739,0.5627650693374955,38.28417995979547,38.84694502913297,498.0594191622042,21.980003950596327
1.7103257530409905E12,1.7717391304347825,-4.989130434782608,7.326086956521739,0.5596638393001365,38.28353086513649,38.84319470443663,498.06316948690056,22.040369753881667
1.7103257530605222E12,1.8043478260869565,-4.945652173913043,7.315217391304348,0.5711311782754872,38.2662216742303,38.83735285250579,498.0430475524721,22.111481679854595
1.7103257530800542E12,1.7934782608695652,-4.956521739130435,7.271739130434782,0.5507207573319385,38.26557257957132,38.81629333690326,498.0490336476605,22.728265849145156
1.710325753099586E12,1.8043478260869565,-4.945652173913043,7.271739130434782,0.568102069866904,38.2480470237788,38.816149093645706,498.03403234887514,22.66018303158081
1.7103257531191177E12,1.8043478260869565,-4.945652173913043,7.293478260869565,0.5531007710815395,38.24343123953715,38.79653201061869,498.0571112700834,22.87402366090103
1.7103257531386497E12,1.7608695652173914,-4.956521739130435,7.293478260869565,0.5556250280886922,38.233262089879766,38.78888711796846,498.06165493269623,22.86940787665938
1.7103257531581814E12,1.7717391304347825,-4.956521739130435,7.326086956521739,0.5454558784313057,38.239464549954484,38.78492042838579,498.0529282156144,23.048197394394567
1.7103257531777134E12,1.7826086956521738,-4.956521739130435,7.304347826086956,0.5548316901721585,38.22525658908565,38.78008827925781,498.0537215535309,22.815244533448762
1.710325753197245E12,1.7826086956521738,-4.956521739130435,7.304347826086956,0.5613226367619797,38.22806933260791,38.78939196936989,498.04326391735844,22.803055978185654
1.710325753216777E12,1.7608695652173914,-4.956521739130435,7.271739130434782,0.5631256774813744,38.32665959914441,38.88978527662579,498.05718339171216,22.77226004269839
1.7103257532363088E12,1.8043478260869565,-4.956521739130435,7.293478260869565,0.5769009085775505,38.327813545204826,38.904714453782375,498.0579767296287,22.84971867200359
1.7103257532558408E12,1.7934782608695652,-4.945652173913043,7.315217391304348,0.5860603554320759,38.30646554308719,38.89252589851927,498.0404511738362,22.926023355248375
1.7103257532753726E12,1.7934782608695652,-4.956521739130435,7.293478260869565,0.5800742602436854,38.24040213112857,38.82047639137225,498.051125174895,23.097744953363534
1.7103257532949045E12,1.8043478260869565,-4.934782608695652,7.282608695652174,0.5450952702874268,38.20419707348312,38.74929234377055,498.0571112700834,23.15775014850499
1.7103257533144363E12,1.7934782608695652,-4.945652173913043,7.282608695652174,0.5344933908573856,38.19785037015085,38.73234376100824,498.0484566746303,23.20405223417905
1.7103257533339683E12,1.7717391304347825,-4.978260869565217,7.260869565217391,0.5520189466499027,38.18111815227487,38.73313709892477,498.05833733777257,22.864575727531403
1.7103257533535E12,1.7934782608695652,-4.978260869565217,7.271739130434782,0.628107265008362,38.057501680553166,38.685608945561526,498.05386579678844,22.76338908235897
1.710325753373032E12,1.7717391304347825,-4.956521739130435,7.293478260869565,0.7561231560853906,38.928009739876956,39.68413289596235,498.04917789091803,22.54168719550219
1.7103257533925637E12,1.7826086956521738,-4.934782608695652,7.358695652173913,0.1870835050444013,39.09244705348576,39.27953055853016,498.0629531220142,22.542913263191377
1.7103257534120957E12,1.8369565217391304,-4.956521739130435,7.304347826086956,0.4086411486436306,38.47450893813478,38.883150086778414,498.0603567433783,23.466574962922927
1.7103257534316274E12,1.8152173913043477,-4.869565217391305,7.184782608695652,0.5665875156626125,38.32615474774298,38.892742263405594,498.05004335046334,23.346492451011237
1.7103257534511594E12,1.7065217391304348,-4.934782608695652,7.554347826086956,0.5745208948279494,38.296152150172254,38.8706730450002,498.0522791209554,23.028219703223673
1.7103257534706912E12,1.8695652173913042,-4.967391304347826,7.08695652173913,0.5820936658494075,38.296657001573685,38.87875066742309,498.0556688375079,23.811172105213657
1.7103257534902231E12,1.7717391304347825,-4.934782608695652,7.282608695652174,0.589161585469435,38.30689827285985,38.89605985832928,498.0582652161438,23.654019076111208
1.710325753509755E12,1.7826086956521738,-4.923913043478261,7.239130434782608,0.5999798297858036,38.325072923311346,38.92505275309715,498.0550918644777,23.49102419507792
1.7103257535292869E12,1.7608695652173914,-4.934782608695652,7.293478260869565,0.6129617229654459,38.35305611527635,38.9660178382418,498.06187129758257,21.842323761263344
1.7103257535488186E12,1.7826086956521738,-4.956521739130435,7.3478260869565215,0.6287563596673441,38.3871696456873,39.01592600535464,498.0542985265611,21.673703393185544
1.7103257535683506E12,1.826086956521739,-4.956521739130435,7.293478260869565,0.6633747414797236,38.47472530302112,39.13810004450084,498.037926916829,21.297444855862246
1.7103257535878823E12,1.8043478260869565,-4.989130434782608,7.293478260869565,0.6837851624232725,38.55225605395509,39.23604121637836,498.02523351016447,21.274870786055423
1.7103257536074143E12,1.7934782608695652,-4.945652173913043,7.271739130434782,0.697055542118018,38.63598926496378,39.3330448070818,498.03093111883777,21.322110452903566
1.710325753626946E12,1.7934782608695652,-4.934782608695652,7.228260869565217,0.6810445405297925,38.597404193568735,39.278448734098525,498.046293025767,21.507607282114897
1.710325753646478E12,1.7826086956521738,-4.945652173913043,7.271739130434782,0.6178659937221996,38.416378905341496,39.034244899063694,498.05545247262154,21.604466629560786
1.7103257536660098E12,1.7826086956521738,-4.934782608695652,7.239130434782608,0.5885846124392287,38.33524207296873,38.92382668540796,498.04283118758576,21.86035416845729
1.7103257536855417E12,1.8152173913043477,-4.956521739130435,7.326086956521739,0.5756027192595863,38.29110363615795,38.866706355417534,498.0519906344403,21.86756633133487
1.7103257537050735E12,1.8043478260869565,-4.967391304347826,7.33695652173913,0.5652893263446482,38.281078729758114,38.84636805610276,498.0197522663775,22.228462961728926
1.7103257537246055E12,1.7391304347826086,-5.010869565217392,7.25,0.5592311095274818,38.28865150077957,38.84788261030705,498.0426148226994,22.28637662963589
1.7103257537441372E12,1.826086956521739,-4.956521739130435,7.315217391304348,0.5602408123303428,38.28151145953077,38.84175227186111,498.0613664461811,22.470719512786808
1.7103257537636692E12,1.7934782608695652,-4.989130434782608,7.184782608695652,0.5717802729344694,38.27227989104747,38.844060163981936,498.0408839036088,22.5747189014815
1.710325753783201E12,1.7717391304347825,-4.956521739130435,7.239130434782608,0.5710590566467114,38.29535881225572,38.86641786890243,498.04405725527494,22.195575499007166
1.7103257538027327E12,1.7826086956521738,-4.9021739130434785,7.369565217391304,0.5795694088422548,38.28994969009754,38.86951909893979,498.0470142420548,22.814667560418556
1.7103257538222646E12,1.8043478260869565,-4.978260869565217,7.293478260869565,0.5789924358120484,38.289805446839985,38.86879788265203,498.0493221341756,22.936697356307192
1.7103257538417964E12,1.8043478260869565,-4.967391304347826,7.315217391304348,0.5773336383502052,38.29175273081693,38.869086369167135,498.05718339171216,23.887044058685788
1.7103257538613284E12,1.8043478260869565,-4.956521739130435,7.282608695652174,0.5833918551673717,38.28591087888609,38.86930273405346,498.0529282156144,24.10874594554257
