Shimmer_6D72_TimestampSync_Unix_CAL,Shimmer_6D72_Accel_LN_X_CAL,Shimmer_6D72_Accel_LN_Y_CAL,Shimmer_6D72_Accel_LN_Z_CAL,Shimmer_6D72_ECG_LA-RA_24BIT_CAL,Shimmer_6D72_ECG_LL-LA_24BIT_CAL,Shimmer_6D72_ECG_LL-RA_24BIT_CAL,Shimmer_6D72_ECG_RESP_24BIT_CAL,Shimmer_6D72_ECG_Vx-RL_24BIT_CAL
ms,m/(s^2),m/(s^2),m/(s^2),mV,mV,mV,mV,mV
1.7089489852497637E12,2.4456521739130435,-6.391304347826087,3.5543478260869565,0.4066217430379085,13.426955750817747,13.833577493855655,498.6578844377857,215.13362588091206
1.7089489852692954E12,2.4130434782608696,-6.391304347826087,3.5652173913043477,0.39529864732010933,13.43135517017307,13.82665381749318,498.6511050046808,215.0552296704328
1.7089489852888271E12,2.4456521739130435,-6.423913043478261,3.532608695652174,0.39594774197909144,13.435610346270842,13.831558088249933,498.6399982738493,215.13420285394227
1.708948985308359E12,2.4239130434782608,-6.4021739130434785,3.510869565217391,0.40820841887097586,13.423710277522837,13.831918696393812,498.66949602001864,215.0138318555155
1.7089489853278906E12,2.4239130434782608,-6.391304347826087,3.510869565217391,0.4210460687930666,13.464531119409935,13.885577188203001,498.6596153568763,215.06734610406713
1.7089489853474224E12,2.4130434782608696,-6.369565217391304,3.532608695652174,0.44657712537969657,13.465901430356674,13.91247855573637,498.6657456953223,215.06251395493913
1.708948985366954E12,2.4347826086956523,-6.369565217391304,3.5543478260869565,0.445062571175405,13.475854215127733,13.920916786303138,498.66322143831513,215.00322997608544
1.7089489853864858E12,2.4347826086956523,-6.391304347826087,3.5760869565217392,0.4284024749281973,13.489557324595134,13.91795979952333,498.6593268703612,215.02666950543758
1.7089489854060178E12,2.4347826086956523,-6.413043478260869,3.510869565217391,0.4047465806897379,13.436692170702479,13.841438751392216,498.66451962763307,214.99010383964824
1.7089489854255496E12,2.4456521739130435,-6.380434782608695,3.510869565217391,0.39731805292583144,13.427676967105505,13.824995020031336,498.6726693716848,215.01787066672694
1.7089489854450813E12,2.4239130434782608,-6.391304347826087,3.543478260869565,0.38087432156495116,13.43546610301329,13.816340424578241,498.6555044240361,214.98981535313314
1.708948985464613E12,2.4130434782608696,-6.4021739130434785,3.543478260869565,0.38808648444253024,13.433013967634913,13.821100452077443,498.6505280316506,215.03272772225475
1.7089489854841448E12,2.4347826086956523,-6.413043478260869,3.5543478260869565,0.37308518565716575,13.443615847064954,13.81670103272212,498.6485086260449,214.96514975609182
1.7089489855036765E12,2.4456521739130435,-6.380434782608695,3.543478260869565,0.6586868356092973,13.693877898916949,14.352564734526245,498.6487249909312,214.90550516909423
1.7089489855232083E12,2.4565217391304346,-6.391304347826087,3.532608695652174,0.773215982105253,13.877571687408889,14.650787669514141,498.65658624846776,214.65971465822633
1.70894898554274E12,2.5217391304347827,-6.315217391304348,3.25,0.43965344901722064,13.461790497516454,13.901443946533675,498.65355714005915,214.93045925265065
1.7089489855622717E12,2.260869565217391,-6.369565217391304,3.9456521739130435,0.4230654743987888,13.492947041147596,13.916012515546385,498.6632935599439,214.87081466565309
1.7089489855818035E12,2.467391304347826,-6.413043478260869,3.3043478260869565,0.4320085563669868,13.479460296566524,13.91146885293351,498.66552933043596,214.93190168522617
1.7089489856013352E12,2.4565217391304346,-6.358695652173913,3.641304347826087,0.42407517720164983,13.50145739334314,13.925532570544789,498.6650244790345,214.87651227432636
1.708948985620867E12,2.467391304347826,-6.3478260869565215,3.358695652173913,0.43821101644170485,13.491576730200855,13.92978774664256,498.6632935599439,214.79501483380972
1.7089489856403987E12,2.402173913043478,-6.413043478260869,3.5869565217391304,0.4465050037509208,13.51631444887095,13.962819452621872,498.6568026133541,214.8320132293717
1.7089489856599304E12,2.4130434782608696,-6.423913043478261,3.5217391304347827,0.45984750507444205,13.53398424792102,13.993831752995463,498.6444698148334,214.7667431553296
1.7089489856794622E12,2.4565217391304346,-6.413043478260869,3.5652173913043477,0.48061853416186984,13.568674751362176,14.049293285524046,498.65269168051384,214.85069273122463
1.708948985698994E12,2.467391304347826,-6.413043478260869,3.4565217391304346,0.5176890513526263,13.598172497531474,14.1158615488841,498.6495183288477,214.75909826267937
1.7089489857185256E12,2.467391304347826,-6.369565217391304,3.467391304347826,0.5660826642611819,13.650244313507594,14.216326977768777,498.6553601807786,214.82314226903227
1.7089489857380574E12,2.4456521739130435,-6.369565217391304,3.5,0.5806512332738917,13.698421561529823,14.279072794803715,498.66199537062596,214.7086852441651
1.708948985757589E12,2.4239130434782608,-6.380434782608695,3.467391304347826,0.568102069866904,13.699647629219012,14.267749699085917,498.65146561282467,214.75974735733837
1.7089489857771208E12,2.402173913043478,-6.4021739130434785,3.532608695652174,0.5081689963542219,13.619953229421764,14.128122225775986,498.6462728555528,214.66541226689964
1.7089489857966526E12,2.4782608695652173,-6.391304347826087,3.510869565217391,0.4547268694313609,13.547759479017197,14.002486348448558,498.6557929105512,214.65957041496878
1.7089489858161846E12,2.5,-6.413043478260869,3.532608695652174,0.42256062299735825,13.4795324181953,13.902093041192657,498.6553601807786,214.65279098186386
1.7089489858357163E12,2.4782608695652173,-6.413043478260869,3.5543478260869565,0.41405027080181495,13.483499107777968,13.897549378579782,498.65514381589225,214.61442227535514
1.708948985855248E12,2.5,-6.434782608695652,3.4239130434782608,0.4141945140593665,13.448087388049053,13.86228190210842,498.66581781695106,214.5966803546763
1.7089489858747798E12,2.467391304347826,-6.4021739130434785,3.510869565217391,0.4165745278089676,13.444769793125367,13.861344320934334,498.63992615222054,214.56530744615884
1.7089489858943115E12,2.467391304347826,-6.326086956521739,3.5,0.424363663716753,13.440730981913923,13.865094645630675,498.6389164494177,214.57251960903642
1.7089489859138433E12,2.4565217391304346,-6.391304347826087,3.543478260869565,0.4223442581110309,13.45176559111662,13.87410984922765,498.6379067466148,214.53703576767873
1.708948985933375E12,2.4782608695652173,-6.391304347826087,3.5217391304347827,0.43828313807048064,13.439649157482286,13.877932295552768,498.63870008453137,214.6074264773639
1.7089489859529067E12,2.4782608695652173,-6.4021739130434785,3.5543478260869565,0.43345098894250267,13.44368796869373,13.877138957636234,498.65983172176266,214.519582333515
1.7089489859724385E12,2.5,-6.434782608695652,3.543478260869565,0.42854671818574885,13.462655957061765,13.891202675247513,498.64526315275,214.55355162066837
1.7089489859919702E12,2.467391304347826,-6.391304347826087,3.532608695652174,0.4209739471642908,13.453568631836015,13.874542579000305,498.6484365044161,214.47703057253727
1.708948986011502E12,2.4782608695652173,-6.4021739130434785,3.5543478260869565,0.42320971765634036,13.456597740244598,13.879807457900938,498.64346011203054,214.5296072399148
1.7089489860310337E12,2.4565217391304346,-6.380434782608695,3.5,0.42176728508082456,13.44714980687497,13.868917091955794,498.6498789369916,214.48474758681627
1.7089489860505654E12,2.4565217391304346,-6.380434782608695,3.5,0.4261667044361478,13.43957703585351,13.865743740289657,498.6515377344534,214.53847820025425
1.7089489860700972E12,2.4782608695652173,-6.358695652173913,3.543478260869565,0.416430284551416,13.440154008883717,13.856584293435132,498.6512492479383,214.58167905589093
1.708948986089629E12,2.4891304347826084,-6.380434782608695,3.5543478260869565,0.41138177053711067,13.442894630777197,13.854276401314307,498.66069718130797,214.47703057253727
1.7089489861091606E12,2.5,-6.380434782608695,3.543478260869565,0.42198364996715193,13.422700574719975,13.844684224687127,498.64194555782626,214.50833135942597
1.7089489861286924E12,2.4891304347826084,-6.4021739130434785,3.5543478260869565,0.4315758265943321,13.444986158011696,13.876561984606028,498.6394213008191,214.40115861906514
1.708948986148224E12,2.467391304347826,-6.358695652173913,3.5217391304347827,0.43417220523026057,13.486960945959204,13.921133151189466,498.64793165301467,214.4384455011422
1.7089489861677559E12,2.467391304347826,-6.358695652173913,3.5217391304347827,0.44362013859988914,13.481840310316123,13.925460448916013,498.642017679455,214.33199397706915
1.7089489861872876E12,2.4565217391304346,-6.391304347826087,3.5543478260869565,0.44340377371356177,13.487177310845532,13.930581084559094,498.6377625033573,214.37728635994034
1.7089489862068193E12,2.4782608695652173,-6.4021739130434785,3.5760869565217392,0.399553823417881,13.456669861873372,13.856223685291253,498.638483719645,214.28648522931164
1.708948986226351E12,2.467391304347826,-6.423913043478261,3.510869565217391,0.40106837762217257,13.411593843888504,13.812662221510676,498.63372369214585,214.3276666793426
1.708948986245883E12,2.4782608695652173,-6.4021739130434785,3.5543478260869565,0.3885913358439608,13.411954452032383,13.800545787876343,498.65362926168797,214.2925434461288
1.7089489862654148E12,2.467391304347826,-6.413043478260869,3.5869565217391304,0.385057376033947,13.404670167526028,13.789727543559975,498.6326418677142,214.2088823567489
1.7089489862849465E12,2.467391304347826,-6.4021739130434785,3.641304347826087,0.38549010580660176,13.404598045897252,13.790088151703854,498.65528805914977,214.13719345774575
1.7089489863044783E12,2.5,-6.380434782608695,3.5869565217391304,0.40972297307526745,13.459698970281957,13.869421943357224,498.6508165181657,214.12615884854304
1.70894898632401E12,2.4891304347826084,-6.4021739130434785,3.608695652173913,0.8836341957609888,14.001693010532025,14.885327206293013,498.64706619346936,213.8220940616243
1.7089489863435417E12,2.5217391304347827,-6.380434782608695,3.4239130434782608,0.39731805292583144,13.378201529765313,13.775519582691144,498.6543504779757,214.00694179617668
1.7089489863630735E12,2.4130434782608696,-6.33695652173913,3.6739130434782608,0.38491313277639544,13.45515530766908,13.840068440445476,498.6650244790345,214.03449225836903
1.7089489863826052E12,2.380434782608696,-6.413043478260869,3.6956521739130435,0.3747439831190089,13.45090013157131,13.825644114690318,498.65723534312673,213.96864521129672
1.708948986402137E12,2.532608695652174,-6.369565217391304,3.4891304347826084,0.39739017455460723,13.418950250023634,13.816340424578241,498.6581729243008,214.08468891199698
1.7089489864216687E12,2.4565217391304346,-6.25,3.5869565217391304,0.39789502595603776,13.417724182334446,13.815619208290483,498.66141839759575,213.994608997656
1.7089489864412004E12,2.5,-6.33695652173913,3.4891304347826084,0.418161203642035,13.411449600630952,13.829610804272987,498.64439769320467,214.06413424779586
1.7089489864607322E12,2.4565217391304346,-6.423913043478261,3.7391304347826084,0.4087853919011822,13.433013967634913,13.841799359536095,498.6534850184304,213.9398686814152
1.708948986480264E12,2.4565217391304346,-6.456521739130435,3.543478260869565,0.4306382454202468,13.470733579484653,13.9013718249049,498.6477152881283,213.99381565973948
1.7089489864997957E12,2.4456521739130435,-6.423913043478261,3.6630434782608696,0.4651123839750748,13.492081581602285,13.95719396557736,498.6445419364622,213.90510605634523
1.7089489865193274E12,2.4782608695652173,-6.4021739130434785,3.4891304347826084,0.4901385891602742,13.525834503869357,14.015973093029631,498.64973469373405,213.86810766078327
1.7089489865388591E12,2.4347826086956523,-6.358695652173913,3.4782608695652173,0.5323297419941118,13.581368158026715,14.113697900020826,498.6386279629026,213.9192418955853
1.7089489865583909E12,2.4565217391304346,-6.358695652173913,3.510869565217391,0.5466819461204941,13.598244619160251,14.144926565280745,498.63567097612275,213.8385377929852
1.7089489865779226E12,2.4239130434782608,-6.380434782608695,3.532608695652174,0.4906434405617047,13.565068669923386,14.055712110485091,498.64151282805364,213.88902293312825
1.7089489865974543E12,2.4782608695652173,-6.380434782608695,3.5652173913043477,0.42544548814838984,13.46994024156812,13.895385729716509,498.6444698148334,213.84250448256785
1.708948986616986E12,2.4782608695652173,-6.391304347826087,3.5652173913043477,0.39263014705540505,13.372648164349577,13.765278311404982,498.64504678786363,213.90871213778402
1.7089489866365178E12,2.4891304347826084,-6.423913043478261,3.5869565217391304,0.37618641569452477,13.346323769846412,13.722510185540937,498.64266677411405,213.8536833350281
1.7089489866560496E12,2.4565217391304346,-6.434782608695652,3.5217391304347827,0.3707772935363404,13.313364185495876,13.684141479032217,498.64648922043915,213.9496051012999
1.7089489866755815E12,2.4782608695652173,-6.4021739130434785,3.543478260869565,0.3655124146357077,13.307233847049934,13.672746261685642,498.6427388957428,213.91015457035954
1.7089489866951133E12,2.467391304347826,-6.3478260869565215,3.510869565217391,0.3908271063360103,13.286390696333731,13.677217802669741,498.63653643566806,213.94599901986112
1.708948986714645E12,2.4239130434782608,-6.358695652173913,3.608695652173913,0.386427686980687,13.298435008339288,13.684862695319975,498.62889154301786,213.92739163963697
1.7089489867341768E12,2.467391304347826,-6.391304347826087,3.543478260869565,0.3810906864512785,13.284082804212906,13.665173490664184,498.63581521938033,213.99843144398113
1.7089489867537085E12,2.4565217391304346,-6.380434782608695,3.5760869565217392,0.3852737409202744,13.293747102468862,13.679020843389136,498.63696916544075,213.9896326052705
1.7089489867732402E12,2.4456521739130435,-6.434782608695652,3.619565217391304,0.3851294976627228,13.294035588983965,13.679165086646687,498.64533527437874,214.0401898670423
1.708948986792772E12,2.4565217391304346,-6.423913043478261,3.608695652173913,0.3906107414496829,13.279250655084928,13.66986139653461,498.62817032673007,214.04365170522354
1.7089489868123037E12,2.4239130434782608,-6.391304347826087,3.608695652173913,0.38556222743537755,13.280981574175547,13.666543801610924,498.65586503218,214.10921026578075
1.7089489868318354E12,2.4239130434782608,-6.369565217391304,3.608695652173913,0.39508228243378196,13.262302072322617,13.657384354756399,498.64944620721894,214.20289626156048
1.7089489868513672E12,2.4456521739130435,-6.423913043478261,3.5652173913043477,0.3889519439878397,13.266557248420389,13.655509192408228,498.65543230240735,214.15082444558436
1.708948986870899E12,2.4565217391304346,-6.434782608695652,3.652173913043478,0.3868604167533418,13.255378395960141,13.642238812713483,498.66322143831513,214.25338140170354
1.7089489868904307E12,2.4565217391304346,-6.467391304347826,3.5978260869565215,0.4007077694782936,13.243478327212136,13.64418609669043,498.6614905192245,214.16647483902872
1.7089489869099624E12,2.5,-6.380434782608695,3.5217391304347827,0.3963804717517462,13.222851541382258,13.619232013134004,498.643964963432,214.28194156669875
1.7089489869294941E12,2.4891304347826084,-6.33695652173913,3.5760869565217392,0.39522652569133354,13.224438217215326,13.619664742906659,498.636897043812,214.23506250799448
1.708948986949026E12,2.4782608695652173,-6.369565217391304,3.5760869565217392,0.408496905386079,13.272038492207349,13.680535397593427,498.6508165181657,214.35940019600395
1.7089489869685576E12,2.4456521739130435,-6.4021739130434785,3.641304347826087,0.44109588159273644,13.22934248797208,13.670438369564817,498.66040869479286,214.4096689712607
1.7089489869880894E12,2.4239130434782608,-6.4021739130434785,3.652173913043478,0.4262388260649236,13.264032991413236,13.690271817478159,498.6531244102865,214.36661235888153
1.708948987007621E12,2.4456521739130435,-6.33695652173913,3.5760869565217392,0.40380899951565263,13.258768112512604,13.662577112028256,498.65658624846776,214.43325274387036
1.7089489870271528E12,2.4565217391304346,-6.315217391304348,3.5652173913043477,0.38015310527719326,13.191622876122342,13.571775981399535,498.651681977711,214.42683391890932
1.7089489870466846E12,2.467391304347826,-6.326086956521739,3.5978260869565215,0.3747439831190089,13.194075011500718,13.568818994619727,498.6529080454002,214.48005968094586
1.7089489870662163E12,2.467391304347826,-6.33695652173913,3.641304347826087,0.362988157628555,13.200349593204212,13.563337750832767,498.66906329024596,214.4921039929514
1.7089489870857483E12,2.4565217391304346,-6.3478260869565215,3.5978260869565215,0.3670269688399993,13.209076310286083,13.576103279126082,498.66610630346617,214.54886371479796
1.70894898710528E12,2.4891304347826084,-6.358695652173913,3.608695652173913,0.35418931891790856,13.224077609071447,13.578266927989356,498.65211470748363,214.5648025947574
1.7089489871248118E12,2.4239130434782608,-6.3478260869565215,3.6956521739130435,0.684290013824703,13.536220018413069,14.220510032237772,498.6617790057396,214.53689152442118
1.7089489871443435E12,2.4565217391304346,-6.33695652173913,3.6630434782608696,0.60877866849645,13.604951930636398,14.213730599132848,498.6656735736935,214.38601307702223
1.7089489871638752E12,2.4891304347826084,-6.282608695652174,3.4891304347826084,0.4064774997803569,13.210879351005477,13.617356850785834,498.6657456953223,214.70471855458243
1.708948987183407E12,2.3478260869565215,-6.358695652173913,3.9456521739130435,0.3961641068654188,13.238718299712934,13.634882406578352,498.66365416808776,214.69656881053078
1.7089489872029387E12,2.5760869565217392,-6.380434782608695,3.3804347826086953,0.40114049925094836,13.23604979944823,13.637190298699178,498.6713711823668,214.85934732667772
1.7089489872224705E12,2.4130434782608696,-6.326086956521739,3.8152173913043477,0.41469936546079705,13.215711500133457,13.630410865594254,498.65968747850513,214.82465682323658
1.7089489872420022E12,2.4565217391304346,-6.358695652173913,3.5869565217391304,0.41008358121914645,13.2560996122479,13.666183193467045,498.65896626221735,214.91170762916894
1.708948987261534E12,2.4347826086956523,-6.391304347826087,3.782608695652174,0.42068546064918766,13.25025776031706,13.670943220966247,498.6612741543382,214.87853167993208
1.7089489872810657E12,2.5,-6.423913043478261,3.6630434782608696,0.4368407054949648,13.267639072852024,13.70447977834699,498.66646691161003,214.82984958050844
1.7089489873005974E12,2.4782608695652173,-6.358695652173913,3.7282608695652173,0.4665548165505906,13.291006480575382,13.757561297125973,498.651681977711,214.96976554033347
1.7089489873201292E12,2.467391304347826,-6.33695652173913,3.608695652173913,0.49828833321193855,13.314301766669962,13.8125900998819,498.65572078892245,214.92952167147658
1.708948987339661E12,2.4782608695652173,-6.315217391304348,3.641304347826087,0.5444461756284447,13.358800811624626,13.90324698725307,498.646849828583,215.0900644171315
1.7089489873591926E12,2.510869565217391,-6.326086956521739,3.619565217391304,0.5584377716109481,13.40856473547992,13.967002507090868,498.6480758962722,215.03445864134537
1.7089489873787244E12,2.467391304347826,-6.369565217391304,3.652173913043478,0.5249012142302054,13.41080050597197,13.935701720202175,498.6478595313859,215.16341211359648
1.708948987398256E12,2.4891304347826084,-6.369565217391304,3.6739130434782608,0.4524910989393114,13.349424999883771,13.801916098823083,498.65752382964183,215.10261358053847
1.7089489874177878E12,2.467391304347826,-6.380434782608695,3.717391304347826,0.4104441893630254,13.293819224097637,13.704263413460662,498.6502395451355,215.10874391898443
1.7089489874373196E12,2.510869565217391,-6.4021739130434785,3.6956521739130435,0.3733736721722689,13.236482529220883,13.609856201393152,498.6637262897166,215.14538170640253
1.7089489874568513E12,2.5,-6.434782608695652,3.641304347826087,0.37157063145287417,13.21253814846732,13.584108779920195,498.66365416808776,215.14826657155356
1.708948987476383E12,2.467391304347826,-6.3478260869565215,3.7717391304347827,0.3648633199767256,13.215567256875904,13.58043057685263,498.6718760337682,215.2064687259756
1.7089489874959148E12,2.4782608695652173,-6.358695652173913,3.6739130434782608,0.36068026550772975,13.221336987177967,13.582017252685697,498.66524084392086,215.25803569055032
1.7089489875154468E12,2.4565217391304346,-6.478260869565217,3.8152173913043477,0.361617846681815,13.228693393313097,13.590311239994913,498.66055293805044,215.3325373330757
1.7089489875349785E12,2.467391304347826,-6.380434782608695,3.717391304347826,0.3701281988773583,13.211239959149356,13.581368158026715,498.6579565594145,215.31861785872198
1.7089489875545103E12,2.5,-6.358695652173913,3.760869565217391,0.3611129952803845,13.235040096645367,13.596153091925752,498.6593268703612,215.3473943886035
1.708948987574042E12,2.4782608695652173,-6.358695652173913,3.717391304347826,0.34820322372951795,13.250546246832162,13.59874947056168,498.6657456953223,215.3233057645924
1.7089489875935737E12,2.4782608695652173,-6.315217391304348,3.6956521739130435,0.3513765753956527,13.229703096115959,13.581079671511612,498.65983172176266,215.40206258321555
1.7089489876131055E12,2.4456521739130435,-6.304347826086956,3.717391304347826,0.35043899422156743,13.248815327741543,13.59925432196311,498.664880235777,215.3233057645924
1.7089489876326372E12,2.4347826086956523,-6.315217391304348,3.652173913043478,0.34712139929788105,13.247805624938682,13.594927024236563,498.67786212895663,215.3975189206027
1.708948987652169E12,2.4347826086956523,-6.326086956521739,3.6630434782608696,0.3305334246794492,13.267566951223248,13.598100375902698,498.6662505467237,215.32049302107015
1.7089489876717007E12,2.4347826086956523,-6.369565217391304,3.7065217391304346,0.32353762668819747,13.262590558837719,13.586128185525917,498.6588220189598,215.39023463609632
1.7089489876912324E12,2.467391304347826,-6.380434782608695,3.6739130434782608,0.3149551528638784,13.271389397548365,13.586344550412244,498.6762033314948,215.34097556364247
1.7089489877107642E12,2.467391304347826,-6.358695652173913,3.684782608695652,0.31430605820489627,13.287977372166797,13.602283430371694,498.6623559787698,215.44612889839757
1.708948987730296E12,2.4239130434782608,-6.326086956521739,3.652173913043478,0.3172630449847037,13.275139722244706,13.59240276722941,498.6612741543382,215.5404639888363
1.7089489877498276E12,2.4565217391304346,-6.304347826086956,3.619565217391304,0.3202200317645111,13.328509727538792,13.648729759303304,498.6749772638056,215.46307748115987
1.7089489877693594E12,2.4347826086956523,-6.326086956521739,3.6630434782608696,0.3437316827454189,13.330817619659618,13.674549302405037,498.6723808851697,215.54327673235855
1.708948987788891E12,2.4565217391304346,-6.33695652173913,3.6956521739130435,0.3357983035800819,13.347189229391722,13.682987532971804,498.6668996413827,215.4757708878244
1.7089489878084229E12,2.4565217391304346,-6.3478260869565215,3.717391304347826,0.31964305873430476,13.350218337800305,13.66986139653461,498.6644475060043,215.53649729925363
1.7089489878279546E12,2.467391304347826,-6.3478260869565215,3.6956521739130435,0.28625074461111366,13.301536238376647,13.58778698298776,498.67887183175947,215.4796654557783
1.7089489878474863E12,2.4782608695652173,-6.369565217391304,3.717391304347826,0.29742959707136124,13.293819224097637,13.591248821168998,498.67569848009333,215.5443585567902
1.708948987867018E12,2.4782608695652173,-6.380434782608695,3.7282608695652173,0.27737978427169135,13.313436307124652,13.590816091396343,498.6843530755464,215.5487579761455
1.7089489878865498E12,2.4456521739130435,-6.3478260869565215,3.684782608695652,0.2731967298026955,13.330457011515739,13.603653741318434,498.67800637221416,215.55135435478144
1.7089489879060815E12,2.467391304347826,-6.33695652173913,3.6956521739130435,0.26504698575103114,13.313003577351997,13.578050563103028,498.6790881966458,215.54327673235855
1.7089489879256135E12,2.467391304347826,-6.358695652173913,3.793478260869565,0.5470425542643731,13.607548309272328,14.1545908635367,498.6772130342976,215.47411209036258
1.7089489879451453E12,2.4782608695652173,-6.3478260869565215,3.760869565217391,0.5725014892222273,13.797156071323881,14.36965756054611,498.6675487360417,215.30419353296682
1.708948987964677E12,2.5543478260869565,-6.293478260869565,3.467391304347826,0.303704178774855,13.349424999883773,13.653129178658627,498.66762085767044,215.49704676831328
1.7089489879842087E12,2.3260869565217392,-6.33695652173913,4.108695652173913,0.2894962179060242,13.405030775669907,13.69452699357593,498.6782227371005,215.4609138322966
1.7089489880037405E12,2.5978260869565215,-6.4021739130434785,3.369565217391304,0.30420903017628553,13.387288854991063,13.691497885167347,498.67447241240416,215.47483330665034
1.7089489880232722E12,2.5543478260869565,-6.3478260869565215,3.760869565217391,0.31776789638613423,13.386856125218406,13.704624021604541,498.67786212895663,215.42629545048422
1.708948988042804E12,2.510869565217391,-6.369565217391304,3.652173913043478,0.31762365312858265,13.406545329874197,13.72416898300278,498.68017002107746,215.32662335951608
1.7089489880623357E12,2.467391304347826,-6.434782608695652,3.7717391304347827,0.3383225605872346,13.419094493281186,13.757417053868421,498.6749772638056,215.3828782299612
1.7089489880818674E12,2.510869565217391,-6.434782608695652,3.684782608695652,0.34264985831378203,13.435321859755739,13.777971718069521,498.68456944043277,215.27750853031978
1.7089489881013992E12,2.510869565217391,-6.434782608695652,3.6630434782608696,0.3748882263765605,13.465540822212795,13.840429048589355,498.6697123849049,215.33145550864407
1.708948988120931E12,2.5,-6.369565217391304,3.652173913043478,0.40265505345524,13.510256232053786,13.912911285509026,498.67562635846457,215.19182803533414
1.7089489881404626E12,2.5,-6.358695652173913,3.5869565217391304,0.44340377371356177,13.569395967649934,14.012799741363496,498.66863056047333,215.1451653415162
1.7089489881599944E12,2.4782608695652173,-6.3478260869565215,3.641304347826087,0.45205836916665665,13.605240417151501,14.057298786318158,498.66466387089065,214.9929165831705
1.7089489881795261E12,2.4782608695652173,-6.33695652173913,3.6739130434782608,0.43345098894250267,13.650965529795354,14.084416518737855,498.67028935793513,214.88884507284703
1.7089489881990579E12,2.4565217391304346,-6.3478260869565215,3.6739130434782608,0.34878019675972427,13.577185103557719,13.925965300317444,498.6766360612674,214.913943399661
1.7089489882185896E12,2.4565217391304346,-6.358695652173913,3.684782608695652,0.30745450347119613,13.497274338874144,13.80472884234534,498.66978450653374,214.84535573069522
1.7089489882381213E12,2.4891304347826084,-6.380434782608695,3.684782608695652,0.28682771764132,13.449746185510897,13.736573903152216,498.67028935793513,214.90449546629137
1.708948988257653E12,2.510869565217391,-6.4021739130434785,3.684782608695652,0.26288333688775745,13.44952982062457,13.712413157512326,498.6743281691466,214.820978620169
1.7089489882771848E12,2.532608695652174,-6.434782608695652,3.641304347826087,0.2632439450316364,13.448087388049053,13.71133133308069,498.66863056047333,214.83287868891702
1.7089489882967166E12,2.5217391304347827,-6.369565217391304,3.6630434782608696,0.256825120070591,13.457246834903579,13.71407195497417,498.6674044927841,214.74900123465076
1.7089489883162483E12,2.467391304347826,-6.380434782608695,3.652173913043478,0.25011780859444244,13.450251036912327,13.70036884550677,498.6502395451355,214.7679692230188
1.70894898833578E12,2.467391304347826,-6.391304347826087,3.75,0.25314691700302566,13.470156606454445,13.72330352345747,498.6556486672937,214.70507916272632
1.708948988355312E12,2.467391304347826,-6.33695652173913,3.6630434782608696,0.2543008630634383,13.464891727553812,13.71919259061725,498.6576680728994,214.71423860958083
1.7089489883748438E12,2.4565217391304346,-6.33695652173913,3.7391304347826084,0.25011780859444244,13.496120392813731,13.746238201408174,498.66026445153534,214.66346498292268
1.7089489883943755E12,2.4782608695652173,-6.391304347826087,3.652173913043478,0.2499014437081151,13.500014960767624,13.749916404475739,498.65543230240735,214.70414158155222
1.7089489884139072E12,2.4782608695652173,-6.380434782608695,3.7065217391304346,0.2504784167383214,13.491432486943303,13.741910903681624,498.6615626408533,214.65783949587816
1.708948988433439E12,2.5,-6.358695652173913,3.6630434782608696,0.248891740905254,13.497130095616592,13.746021836521846,498.6653129655496,214.67608626795845
1.7089489884529707E12,2.4891304347826084,-6.358695652173913,3.641304347826087,0.24680021367075608,13.499293744479866,13.746093958150622,498.66790934418555,214.6553873604998
1.7089489884725024E12,2.5,-6.369565217391304,3.652173913043478,0.2521372142001646,13.512852610689714,13.764989824889879,498.6634378032015,214.65437765769693
1.7089489884920342E12,2.467391304347826,-6.391304347826087,3.608695652173913,0.2496129571930119,13.512347759288284,13.761960716481296,498.6668275197539,214.72585019181375
1.708948988511566E12,2.4891304347826084,-6.391304347826087,3.652173913043478,0.2665615399553228,13.51018411042501,13.776745650380333,498.66408689786044,214.60064704425898
1.7089489885310977E12,2.5217391304347827,-6.369565217391304,3.6304347826086953,0.25502207935119625,13.515521110954419,13.770543190305615,498.66646691161003,214.66274376663492
1.7089489885506294E12,2.5217391304347827,-6.391304347826087,3.5869565217391304,0.25264206560159513,13.51516050281054,13.767802568412135,498.6627165869137,214.55744618862227
1.7089489885701611E12,2.5,-6.369565217391304,3.641304347826087,0.25249782234404355,13.525401774096702,13.777899596440745,498.6617790057396,214.61168165346166
1.7089489885896929E12,2.5,-6.358695652173913,3.641304347826087,0.280264649422723,13.592042159085533,13.872306808508256,498.67800637221416,214.50573498079004
1.7089489886092246E12,2.5,-6.358695652173913,3.619565217391304,0.29541019146563907,13.555981344697637,13.851391536163275,498.67302997982864,214.55355162066837
1.7089489886287563E12,2.5,-6.369565217391304,3.684782608695652,0.2911550153678674,13.576247522383634,13.8674025377515,498.6729578581999,214.58557362384482
1.708948988648288E12,2.510869565217391,-6.3478260869565215,3.608695652173913,0.2499014437081151,13.586560915298572,13.836462359006687,498.66322143831513,214.5285254154832
1.7089489886678198E12,2.4891304347826084,-6.369565217391304,3.608695652173913,0.22977950927966945,13.549851006251695,13.779630515531364,498.66307719505755,214.55513829650144
1.7089489886873516E12,2.5217391304347827,-6.4021739130434785,3.6304347826086953,0.21852853519064608,13.545740073411475,13.764268608602121,498.65629776195266,214.5055186159037
1.7089489887068833E12,2.510869565217391,-6.391304347826087,3.652173913043478,0.21751883238778502,13.544658248979838,13.762177081367623,498.65276380214266,214.52924663177095
1.708948988726415E12,2.4891304347826084,-6.391304347826087,3.6630434782608696,0.22574069806822517,13.561895318257251,13.787636016325477,498.66199537062596,214.47234266666683
1.7089489887459468E12,2.5,-6.369565217391304,3.6304347826086953,0.21088364254041228,13.56910748113483,13.779991123675243,498.6680535874431,214.53198725366443
1.7089489887654788E12,2.5217391304347827,-6.358695652173913,3.641304347826087,0.4139060275442633,13.731525389137913,14.145431416682175,498.6834876160011,214.43094485174953
1.7089489887850105E12,2.510869565217391,-6.358695652173913,3.608695652173913,0.38960103864682183,13.754243702202286,14.143844740849108,498.6833433727436,214.31598297548092
1.7089489888045422E12,2.5869565217391304,-6.3478260869565215,3.4456521739130435,0.22437038712148513,13.618510796846246,13.842881183967732,498.69589253615055,214.40195195698166
1.708948988824074E12,2.358695652173913,-6.413043478260869,4.010869565217392,0.19768538447444256,13.670798977708694,13.868484362183137,498.68168457528174,214.46253412515333
1.7089489888436057E12,2.5760869565217392,-6.380434782608695,3.3804347826086953,0.20475330409447004,13.660485584793756,13.865238888888227,498.6945943468326,214.46390443610008
1.7089489888631375E12,2.5,-6.304347826086956,3.782608695652174,0.19205989742993088,13.703325832286577,13.895385729716509,498.68637248115215,214.50544649427493
1.7089489888826692E12,2.532608695652174,-6.3478260869565215,3.4891304347826084,0.2082872639044838,13.69950338596146,13.907790649865944,498.6940894954312,214.44702797496655
1.708948988902201E12,2.467391304347826,-6.413043478260869,3.75,0.2011472226556805,13.725467172320744,13.926614394976426,498.67786212895663,214.48337727586954
1.7089489889217327E12,2.532608695652174,-6.434782608695652,3.5978260869565215,0.21867277844819769,13.74508425534776,13.963757033795957,498.6800257778199,214.4373636767106
1.7089489889412644E12,2.543478260869565,-6.445652173913043,3.6956521739130435,0.23461165840764744,13.75705644572454,13.991668104132188,498.67375119611637,214.35694806062557
1.7089489889607961E12,2.5217391304347827,-6.434782608695652,3.608695652173913,0.2808416224529293,13.818287708555188,14.099129331008116,498.6650244790345,214.45928865185843
1.708948988980328E12,2.510869565217391,-6.380434782608695,3.5978260869565215,0.3199315452494079,13.84324179211161,14.16317333736102,498.65810080267204,214.37209360266849
1.7089489889998596E12,2.510869565217391,-6.33695652173913,3.5652173913043477,0.33457223589089347,13.899208176041624,14.233780411932518,498.65752382964183,214.46491413890294
1.7089489890193914E12,2.4782608695652173,-6.326086956521739,3.619565217391304,0.31452242309122364,13.92394589471172,14.238468317802944,498.67209239865457,214.328820625403
1.708948989038923E12,2.532608695652174,-6.33695652173913,3.6304347826086953,0.22602918458332832,13.812157370109245,14.038186554692574,498.6772851559264,214.4209199453497
1.7089489890584548E12,2.532608695652174,-6.391304347826087,3.6630434782608696,0.19927206030750996,13.72041865830644,13.91969071861395,498.6776457640703,214.32124785438157
1.7089489890779866E12,2.543478260869565,-6.413043478260869,3.7065217391304346,0.17475070652374108,13.685151181835078,13.859901888358818,498.66322143831513,214.314035691504
1.7089489890975183E12,2.4891304347826084,-6.413043478260869,3.6956521739130435,0.155133623496726,13.664812882520305,13.81994650601703,498.676780304525,214.36286203418518
1.70894898911705E12,2.532608695652174,-6.4021739130434785,3.5543478260869565,0.14820994713425006,13.646782475326358,13.794992422460608,498.67930456153215,214.35218803312637
1.7089489891365818E12,2.5,-6.369565217391304,3.684782608695652,0.1580184886477576,13.63596423100999,13.793982719657746,498.67086633096534,214.37173299452462
1.7089489891561135E12,2.4891304347826084,-6.315217391304348,3.6630434782608696,0.14691175781628585,13.658321935930484,13.80523369374677,498.6751215070631,214.36055414206436
1.7089489891756453E12,2.4782608695652173,-6.3478260869565215,3.684782608695652,0.1659518678130946,13.629761770935271,13.795713638748365,498.6676929792992,214.4614523007217
1.7089489891951772E12,2.4891304347826084,-6.358695652173913,3.684782608695652,0.1502293527399722,13.65154250282556,13.801771855565532,498.6767081828962,214.47587662647686
1.708948989214709E12,2.510869565217391,-6.380434782608695,3.8043478260869565,0.1603263807685829,13.633944825404267,13.79427120617285,498.6578844377857,214.5984833953957
1.7089489892342407E12,2.5217391304347827,-6.413043478260869,3.717391304347826,0.16703369224473147,13.636324839153868,13.8033585313986,498.6590383838461,214.56790382479477
1.7089489892537725E12,2.4782608695652173,-6.391304347826087,3.75,0.1652306515253367,13.642527299228586,13.807757950753922,498.65752382964183,214.67132624045925
1.7089489892733042E12,2.4891304347826084,-6.358695652173913,3.7065217391304346,0.15938879959449764,13.623559310860553,13.78294811045505,498.66221173551224,214.66793652390677
1.708948989292836E12,2.4782608695652173,-6.315217391304348,3.684782608695652,0.16544701641166407,13.598893713819233,13.764340730230897,498.65240319399874,214.77085408816984
1.7089489893123677E12,2.467391304347826,-6.315217391304348,3.7282608695652173,0.1550615018679502,13.618582918475024,13.773644420342974,498.68464156206153,214.73767813893298
1.7089489893318994E12,2.4891304347826084,-6.358695652173913,3.7391304347826084,0.16407670546492403,13.597523402872493,13.761600108337417,498.6840645890313,214.83547506755295
1.7089489893514312E12,2.5217391304347827,-6.358695652173913,3.75,0.148931163422008,13.599326443591888,13.748257607013896,498.68846400838663,214.82465682323658
1.708948989370963E12,2.510869565217391,-6.4021739130434785,3.782608695652174,0.16652884084330094,13.58951790207838,13.756046742921681,498.6739675610027,214.89346085708868
1.7089489893904946E12,2.4565217391304346,-6.358695652173913,3.75,0.16277851614695982,13.58216149594325,13.74494001209021,498.680314264335,215.00229239491136
1.7089489894100264E12,2.4782608695652173,-6.33695652173913,3.7717391304347827,0.16162457008654715,13.594782780979013,13.75640735106556,498.66762085767044,214.96197640442568
1.708948989429558E12,2.4891304347826084,-6.33695652173913,3.7065217391304346,0.18391015337826652,13.609711958135602,13.793622111513868,498.6751215070631,215.04816175081277
1.7089489894490898E12,2.4565217391304346,-6.315217391304348,3.6956521739130435,0.1932138434903435,13.610721660938461,13.803935504428805,498.6754099935782,214.99255597502662
1.7089489894686216E12,2.467391304347826,-6.33695652173913,3.7717391304347827,0.2051860338671248,13.623703554118103,13.828889587985229,498.6865888460385,215.0548690622889
1.7089489894881533E12,2.4456521739130435,-6.380434782608695,3.8152173913043477,0.17100038182739996,13.597811889387597,13.768812271214996,498.68125184550905,215.00084996233585
1.708948989507685E12,2.5,-6.391304347826087,3.782608695652174,0.14994086622486905,13.573074170717499,13.723015036942368,498.6834876160011,215.11667729814977
1.7089489895272168E12,2.5217391304347827,-6.369565217391304,3.793478260869565,0.14669539292995845,13.56225592640113,13.708951319331089,498.68341549437235,215.11155666250667
1.7089489895467485E12,2.510869565217391,-6.358695652173913,3.8152173913043477,0.15628756955713863,13.548624938562506,13.704912508119644,498.6733905879725,215.1379531786386
1.7089489895662803E12,2.5,-6.33695652173913,3.760869565217391,0.15102269065650592,13.550139492766798,13.701162183423303,498.6776457640703,215.1478338417809
1.708948989585812E12,2.5217391304347827,-6.3478260869565215,3.793478260869565,0.1488590417932322,13.532541815345505,13.681400857138737,498.6769966694113,215.20574750968785
1.7089489896053438E12,2.5217391304347827,-6.380434782608695,3.858695652173913,0.44340377371356177,13.796146368521018,14.239550142234581,498.684497318804,215.1430738142817
1.7089489896248757E12,2.510869565217391,-6.358695652173913,3.8043478260869565,0.22400977897760618,13.689622722819177,13.913632501796783,498.69445010357504,215.08927107921497
1.7089489896444075E12,2.5,-6.326086956521739,3.5869565217391304,0.20648422318508902,13.523310246862202,13.729794470047292,498.6722366419121,215.22781672809325
1.7089489896639392E12,2.369565217391304,-6.33695652173913,4.054347826086956,0.21398487257777127,13.559803791022754,13.773788663600525,498.68038638596374,215.15353145045418
1.708948989683471E12,2.608695652173913,-6.326086956521739,3.4565217391304346,0.20475330409447004,13.542494600116564,13.747247904211035,498.69192584656787,215.30404928970927
1.7089489897030027E12,2.467391304347826,-6.326086956521739,3.967391304347826,0.2115327371993944,13.549851006251695,13.76138374345109,498.6860118730083,215.22990825532776
1.7089489897225344E12,2.5217391304347827,-6.326086956521739,3.6739130434782608,0.23461165840764744,13.552519506516399,13.787131164924046,498.68521853509174,215.3435719422784
1.7089489897420662E12,2.4782608695652173,-6.369565217391304,3.858695652173913,0.22516372503801885,13.572497197687293,13.797660922725312,498.6850742918342,215.26661816437462
1.708948989761598E12,2.5217391304347827,-6.4021739130434785,3.7391304347826084,0.26677790484165015,13.555332250038655,13.822110154880304,498.6863003595234,215.36520843091114
1.7089489897811296E12,2.532608695652174,-6.369565217391304,3.8478260869565215,0.2787500952184314,13.590022753479811,13.868772848698242,498.6749051421768,215.3202766561838
1.7089489898006614E12,2.4782608695652173,-6.326086956521739,3.7717391304347827,0.335077087292324,13.636541204040194,13.971618291332518,498.6842088322889,215.462716873016
1.708948989820193E12,2.467391304347826,-6.293478260869565,3.75,0.3601754141062992,13.686088763009163,14.046264177115463,498.6847136836903,215.41136627332764
1.7089489898397249E12,2.467391304347826,-6.282608695652174,3.75,0.39724593129705565,13.684357843918544,14.0816037752156,498.68637248115215,215.35619322731415
1.7089489898592566E12,2.467391304347826,-6.326086956521739,3.7065217391304346,0.36991183399103095,13.70498462974842,14.074896463739451,498.66762085767044,215.45427864244922
1.7089489898787883E12,2.5217391304347827,-6.3478260869565215,3.75,0.30204538131301184,13.656230408695986,13.958275790008997,498.6618511273684,215.39535527173942
1.70894898989832E12,2.5217391304347827,-6.369565217391304,3.782608695652174,0.23078921208253053,13.551149195569659,13.78193840765219,498.6695681416474,215.4951716059651
1.7089489899178518E12,2.510869565217391,-6.33695652173913,3.7717391304347827,0.2209085489402472,13.503837407092739,13.724745956032987,498.68428095391766,215.45716350760026
1.7089489899373835E12,2.510869565217391,-6.380434782608695,3.684782608695652,0.2105230343965333,13.48789852713329,13.698421561529823,498.68125184550905,215.54623371913837
1.7089489899569153E12,2.467391304347826,-6.326086956521739,3.7717391304347827,0.22530796829557043,13.467199619674638,13.692507587970209,498.67858334524436,215.49077218660977
1.708948989976447E12,2.5,-6.271739130434782,3.6630434782608696,0.22812071181782625,13.457174713274803,13.68529542509263,498.68110760225153,215.54269975932834
1.7089489899959788E12,2.4130434782608696,-6.358695652173913,3.75,0.2286976848480326,13.464531119409934,13.693228804257966,498.6657456953223,215.5476040300851
1.7089489900155105E12,2.467391304347826,-6.358695652173913,3.75,0.25956574196407106,13.41851752025098,13.67808326221505,498.65456684286204,215.58135695235217
1.7089489900350425E12,2.4782608695652173,-6.380434782608695,3.782608695652174,0.28134647385435985,13.418878128394859,13.700224602249218,498.6583171675584,215.5943388455318
1.7089489900545742E12,2.4891304347826084,-6.391304347826087,3.760869565217391,0.2782452438170009,13.417868425591998,13.696113669408998,498.65514381589225,215.62614448382195
1.708948990074106E12,2.4782608695652173,-6.3478260869565215,3.7391304347826084,0.28387073086151254,13.422916939606303,13.706787670467815,498.66336568157266,215.61272986086965
1.7089489900936377E12,2.4456521739130435,-6.304347826086956,3.75,0.28625074461111366,13.402362275405203,13.688613020016316,498.66920753350354,215.66090710889188
1.7089489901131694E12,2.4565217391304346,-6.304347826086956,3.684782608695652,0.29310229934481374,13.39983801839805,13.692940317742863,498.66834207395823,215.74528941455955
1.7089489901327012E12,2.4239130434782608,-6.304347826086956,3.7391304347826084,0.29418412377645065,13.39709739650457,13.69128152028102,498.66992874979127,215.65196402692368
1.708948990152233E12,2.4565217391304346,-6.33695652173913,3.7391304347826084,0.3038484220324066,13.37603788090204,13.679886302934445,498.6568026133541,215.74500092804445
1.7089489901717646E12,2.4456521739130435,-6.4021739130434785,3.7282608695652173,0.3076708683575235,13.385197327756565,13.692868196114087,498.63841159801626,215.6352318090477
1.7089489901912964E12,2.4891304347826084,-6.4021739130434785,3.7065217391304346,0.28120223059680827,13.412531425062589,13.693733655659397,498.6769245477825,215.70180007240774
1.7089489902108281E12,2.4565217391304346,-6.369565217391304,3.6739130434782608,0.2075660476167259,13.47419541766589,13.681761465282616,498.68125184550905,215.61352319878617
1.7089489902303599E12,2.4239130434782608,-6.3478260869565215,3.6630434782608696,0.19992115496649207,13.494461595351886,13.694382750318379,498.6922864547118,215.69855459911284
1.7089489902498916E12,2.4347826086956523,-6.33695652173913,3.6739130434782608,0.2067005880714164,13.553961939091915,13.760662527163332,498.6762033314948,215.61655230719475
1.7089489902694233E12,2.4456521739130435,-6.3478260869565215,3.6956521739130435,0.21571579166839025,13.549562519736591,13.765278311404982,498.67815061547174,215.6623495414674
1.708948990288955E12,2.4347826086956523,-6.369565217391304,3.7065217391304346,0.1964593167852541,13.551077073940883,13.747536390726138,498.6877427920989,215.71817168213985
1.7089489903084868E12,2.402173913043478,-6.380434782608695,3.684782608695652,0.16739430038861042,13.55078858742578,13.71818288781439,498.6908440221363,215.66090710889188
1.7089489903280186E12,2.402173913043478,-6.369565217391304,3.6630434782608696,0.13674260815889933,13.532830301860608,13.669572910019507,498.6844251971752,215.71305104649676
1.7089489903475503E12,2.4239130434782608,-6.380434782608695,3.7065217391304346,0.12953044528132027,13.526483598528339,13.656014043809659,498.6925749412269,215.66566713639108
1.708948990367082E12,2.4239130434782608,-6.380434782608695,3.6739130434782608,0.10486484823999981,13.553096479546605,13.657961327786605,498.70671078046695,215.71377226278452
1.7089489903866138E12,2.4456521739130435,-6.391304347826087,3.6739130434782608,0.1049369698687756,13.550572222539452,13.655509192408228,498.7181059978135,215.664080460558
1.7089489904061455E12,2.4782608695652173,-6.380434782608695,3.75,0.07918954839581828,13.598677348932904,13.677866897328723,498.70598956417916,215.73158630509215
1.7089489904256772E12,2.4891304347826084,-6.380434782608695,3.8043478260869565,0.43633585409353426,13.947169059177526,14.38350491327106,498.702816212513,215.54147369163917
1.708948990445209E12,2.4782608695652173,-6.445652173913043,3.8152173913043477,0.14770509573281954,13.6323581495712,13.780063245304019,498.7038259153159,215.5988825081447
1.708948990464741E12,2.4347826086956523,-6.4021739130434785,3.6304347826086953,0.11849583607862427,13.614039255862147,13.732535091940772,498.70029195550586,215.65549798673368
1.7089489904842727E12,2.3043478260869565,-6.434782608695652,3.934782608695652,0.10032118562712498,13.62889631138996,13.729217497017085,498.6927913061132,215.72314807452537
1.7089489905038044E12,2.543478260869565,-6.326086956521739,3.3152173913043477,0.10371090217958716,13.623415067603,13.727125969782588,498.7020228745965,215.70143946426387
1.7089489905233362E12,2.4239130434782608,-6.206521739130435,3.7391304347826084,0.11654855210167792,13.637406663585505,13.753955215687183,498.6930076709995,215.74016877891646
1.708948990542868E12,2.4456521739130435,-6.326086956521739,3.467391304347826,0.11142791645859677,13.668707450474198,13.780135366932795,498.6940894954312,215.6998527884308
1.7089489905623997E12,2.402173913043478,-6.358695652173913,3.782608695652174,0.11395217346574944,13.68255480319915,13.7965069766649,498.6951713198628,215.64013607980445
1.7089489905819314E12,2.4130434782608696,-6.4021739130434785,3.619565217391304,0.1338577430078677,13.714144076602945,13.848001819610813,498.691565238424,215.7669259031923
1.7089489906014631E12,2.4565217391304346,-6.423913043478261,3.717391304347826,0.15837909679163656,13.734554497546496,13.892933594338132,498.6865167244097,215.70511766733142
1.7089489906209949E12,2.4782608695652173,-6.423913043478261,3.5869565217391304,0.20057024962547418,13.793045138483661,13.993615388109136,498.688031278614,215.7984430549673
1.7089489906405266E12,2.4456521739130435,-6.358695652173913,3.5869565217391304,0.23237588791559793,13.829971412416866,14.062347300332464,498.69062765724993,215.70273765358183
1.7089489906600583E12,2.4565217391304346,-6.326086956521739,3.5978260869565215,0.23598196935438745,13.885793553089329,14.121775522443716,498.6927913061132,215.80652067739018
1.70894899067959E12,2.4347826086956523,-6.33695652173913,3.5652173913043477,0.19934418193628575,13.866104348433536,14.065448530369823,498.69264706285566,215.71752258748086
1.7089489906991218E12,2.4565217391304346,-6.358695652173913,3.619565217391304,0.11582733581392,13.76960560913153,13.88543294494545,498.69106038702256,215.8231807736374
1.7089489907186536E12,2.467391304347826,-6.369565217391304,3.641304347826087,0.07370830460885819,13.729001132130758,13.802709436739617,498.69949861758937,215.75517007770182
1.7089489907381853E12,2.4456521739130435,-6.4021739130434785,3.6630434782608696,0.06700099313270964,13.687531195584679,13.75453218871739,498.69264706285566,215.74276515755238
1.708948990757717E12,2.4891304347826084,-6.4021739130434785,3.652173913043478,0.05221605923367253,13.680030546191997,13.732246605425669,498.68810340024277,215.79808244682343
1.7089489907772488E12,2.4782608695652173,-6.423913043478261,3.608695652173913,0.04947543734019248,13.688468776758764,13.737944214098956,498.6905555356212,215.77356109303966
1.7089489907967805E12,2.4456521739130435,-6.3478260869565215,3.6304347826086953,0.06505370915576329,13.679742059676894,13.744795768832658,498.6729578581999,215.8258492739021
1.7089489908163123E12,2.4456521739130435,-6.3478260869565215,3.6739130434782608,0.05264878900632727,13.685151181835078,13.737799970841404,498.678366980358,215.80255398780753
1.708948990835844E12,2.4456521739130435,-6.391304347826087,3.7065217391304346,0.045292382871196614,13.698782169673702,13.744074552544898,498.6860118730083,215.845826965073
1.7089489908553757E12,2.467391304347826,-6.391304347826087,3.608695652173913,0.04320085563669868,13.70657130558149,13.749772161218187,498.6715875472531,215.82693109833374
1.7089489908749077E12,2.467391304347826,-6.380434782608695,3.6956521739130435,0.04118145003097654,13.717028941753979,13.758210391784955,498.68853613001545,215.9053994304418
1.7089489908944395E12,2.4782608695652173,-6.358695652173913,3.619565217391304,0.04558086938629978,13.713494981943965,13.759075851330264,498.6735348312301,215.8717907514323
1.7089489909139712E12,2.467391304347826,-6.3478260869565215,3.6630434782608696,0.040820841887097586,13.72027441504889,13.761095256935986,498.6733905879725,215.94571542092748
1.708948990933503E12,2.4565217391304346,-6.358695652173913,3.641304347826087,0.0383687065087207,13.714721049633154,13.753089756141874,498.6827663997134,215.88837872605072
1.7089489909530347E12,2.4456521739130435,-6.369565217391304,3.6304347826086953,0.029786232684401597,13.72676536163871,13.756551594323112,498.67476089891926,215.95256697566117
1.7089489909725664E12,2.4456521739130435,-6.391304347826087,3.652173913043478,0.02444923215499308,13.736646024780994,13.761095256935986,498.68997856259097,215.88729690161907
1.7089489909920981E12,2.4782608695652173,-6.391304347826087,3.619565217391304,0.014640690641485531,13.760229797390677,13.774870488032162,498.68990644096215,216.03096318614047
1.70894899101163E12,2.467391304347826,-6.4021739130434785,3.5869565217391304,0.006274581703493798,13.756767959209439,13.763042540912933,498.68312700785725,216.124721303549
1.7089489910311616E12,2.4891304347826084,-6.369565217391304,3.5760869565217392,0.007861257536561196,13.745661228377967,13.753522485914528,498.7009410501649,216.04062748439642
1.7089489910506934E12,2.4565217391304346,-6.358695652173913,3.5869565217391304,0.028704408252764733,13.736790268038545,13.76549467629131,498.6755542368358,216.1067630179838
1.708948991070225E12,2.467391304347826,-6.358695652173913,3.6304347826086953,0.011827947119229689,13.735636321978133,13.747464269097362,498.68132396713787,216.0382474706468
1.7089489910897568E12,2.467391304347826,-6.369565217391304,3.619565217391304,0.02488196192764782,13.774942609660938,13.799824571588585,498.67916031827457,216.10784484241546
1.7089489911092886E12,2.467391304347826,-6.3478260869565215,3.641304347826087,0.039017801167702815,13.801194882535325,13.840212683703028,498.67771788569905,216.04430568746398
1.7089489911288203E12,2.4891304347826084,-6.3478260869565215,3.619565217391304,0.03959477419790914,13.809488869844541,13.84908364404245,498.67829485872926,216.11613882972466
1.708948991148352E12,2.4782608695652173,-6.369565217391304,3.6739130434782608,0.017886163936396117,13.817061640866,13.834947804802395,498.6843530755464,216.03630018666988
1.7089489911678838E12,2.4782608695652173,-6.380434782608695,3.652173913043478,-0.012621285035763388,13.791025732877939,13.778404447842176,498.69019492747725,216.09471870597827
1.7089489911874155E12,2.4782608695652173,-6.369565217391304,3.6304347826086953,-0.02545893495785415,13.779125664129934,13.75366672917208,498.69646950918076,216.09969509836378
1.7089489912069473E12,2.5,-6.391304347826087,3.619565217391304,0.012260676891884434,13.728568402358103,13.740829079249988,498.6484365044161,216.1193843030196
1.708948991226479E12,2.5,-6.33695652173913,3.6304347826086953,0.07450164252539189,13.67483778892014,13.749339431445533,498.6467055853255,216.1110181940816
1.7089489912460107E12,2.5,-6.380434782608695,3.641304347826087,0.08019925119867936,13.663081963429685,13.743281214628364,498.64822013952977,216.11851884347428
1.7089489912655425E12,2.510869565217391,-6.4021739130434785,3.6630434782608696,0.24369898363339706,13.750637620763497,13.994336604396894,498.64973469373405,216.11051334268015
1.7089489912850742E12,2.5,-6.413043478260869,3.7065217391304346,0.3852016192914986,13.918464650924761,14.30366627021626,498.64353223365936,215.85902522313896
1.7089489913046062E12,2.5652173913043477,-6.326086956521739,3.358695652173913,0.1802319503107012,13.615121080293786,13.795353030604486,498.63783462498606,216.04437780909277
1.708948991324138E12,2.369565217391304,-6.369565217391304,3.967391304347826,0.1775634500459969,13.67209716702666,13.849660617072656,498.64259465248523,215.98148774880028
1.7089489913436697E12,2.5217391304347827,-6.4021739130434785,3.391304347826087,0.1864344103854192,13.660197098278655,13.846631508664073,498.639781908963,216.0787798260188
1.7089489913632014E12,2.510869565217391,-6.33695652173913,3.717391304347826,0.19155504602850035,13.662865598543357,13.854420644571858,498.65384562657425,216.00096058856974
1.7089489913827332E12,2.4891304347826084,-6.315217391304348,3.4891304347826084,0.21102788579796386,13.656086165438433,13.867114051236397,498.63610370589544,216.09522355737968
1.708948991402265E12,2.4782608695652173,-6.413043478260869,3.684782608695652,0.22364917083372723,13.666399558353373,13.8900487291871,498.6585335324447,216.02202010417227
1.7089489914217966E12,2.467391304347826,-6.413043478260869,3.6304347826086953,0.25567117401017836,13.68991120933428,13.945582383344458,498.64591224740894,216.1149127620355
1.7089489914413284E12,2.4782608695652173,-6.413043478260869,3.6630434782608696,0.26735487787185647,13.715874995693564,13.98322987356542,498.6379788682436,216.04019475462377
1.70894899146086E12,2.5,-6.391304347826087,3.608695652173913,0.3017568947979087,13.747464269097362,14.04922116389527,498.65060015327936,215.98184835694414
1.7089489914803918E12,2.510869565217391,-6.358695652173913,3.543478260869565,0.333706776345584,13.812445856624349,14.146152632969933,498.6427388957428,216.04235840348704
1.7089489914999236E12,2.4891304347826084,-6.3478260869565215,3.5652173913043477,0.3584444950156802,13.853410941768997,14.211855436784678,498.63898857104647,215.9769440861874
1.7089489915194553E12,2.467391304347826,-6.369565217391304,3.608695652173913,0.38029734853474484,13.86091159116168,14.241208939696424,498.61865027173167,216.04416144420642
1.708948991538987E12,2.4891304347826084,-6.369565217391304,3.641304347826087,0.32447520786228273,13.815619208290483,14.140094416152767,498.6210302854813,215.98401200580741
1.7089489915585188E12,2.4782608695652173,-6.369565217391304,3.619565217391304,0.2310776985976337,13.709239805846192,13.940317504443826,498.62687213741214,216.05743182390117
1.7089489915780505E12,2.5217391304347827,-6.391304347826087,3.619565217391304,0.1942235462932046,13.67411657263238,13.868340118925586,498.65160985608225,215.99519085826768
1.7089489915975823E12,2.4891304347826084,-6.358695652173913,3.619565217391304,0.1919156541723793,13.638200001502037,13.830115655674417,498.63372369214585,216.04971480962217
1.708948991617114E12,2.4782608695652173,-6.369565217391304,3.543478260869565,0.18737199155950446,13.642238812713483,13.829610804272987,498.6376903817285,215.97802591061904
1.7089489916366458E12,2.4891304347826084,-6.358695652173913,3.6630434782608696,0.14741660921771638,13.668635328845422,13.816051938063138,498.66084142456555,215.99317145266195
1.7089489916561775E12,2.4891304347826084,-6.3478260869565215,3.5869565217391304,0.18347742360561176,13.628463581617307,13.811941005222918,498.62701638066966,215.95747124641792
1.7089489916757092E12,2.4782608695652173,-6.369565217391304,3.7391304347826084,0.19083382974074242,13.629184797905063,13.820018627645807,498.6392049359328,215.9423978260038
1.708948991695241E12,2.5,-6.423913043478261,3.6304347826086953,0.1839822750070423,13.66200013899805,13.84598241400509,498.6492298423326,215.93121897354354
1.708948991714773E12,2.467391304347826,-6.391304347826087,3.6739130434782608,0.18693926178684972,13.654860097749246,13.841799359536095,498.6477152881283,215.9483117995634
1.7089489917343047E12,2.4891304347826084,-6.380434782608695,3.641304347826087,0.18455924803724863,13.664596517633978,13.849155765671226,498.6454073960075,215.93150746005864
1.7089489917538364E12,2.510869565217391,-6.369565217391304,3.6304347826086953,0.1972526547017878,13.65543707077945,13.85268972548124,498.65269168051384,215.93655597407295
1.7089489917733682E12,2.467391304347826,-6.369565217391304,3.6630434782608696,0.18167438288621698,13.659620125248448,13.841294508134665,498.6568026133541,216.01603400898387
1.7089489917929E12,2.4782608695652173,-6.3478260869565215,3.641304347826087,0.19004049182420873,13.667697747671335,13.857738239495545,498.64822013952977,215.92011224271207
1.7089489918124316E12,2.4891304347826084,-6.369565217391304,3.6304347826086953,0.18903078902134765,13.649090367447181,13.83812115646853,498.63682492218317,216.0120673194012
1.7089489918319634E12,2.4782608695652173,-6.380434782608695,3.5978260869565215,0.16869248970657466,13.679886302934445,13.84857879264102,498.65132136956714,215.92184316180268
1.708948991851495E12,2.467391304347826,-6.4021739130434785,3.5978260869565215,0.170639773683521,13.671664437254005,13.842304210937526,498.64490254460605,215.9876180872462
1.7089489918710269E12,2.5,-6.391304347826087,3.619565217391304,0.16941370599433256,13.657961327786605,13.827375033780937,498.6455516392651,215.9191025399092
1.7089489918905586E12,2.4782608695652173,-6.380434782608695,3.619565217391304,0.16537489478288828,13.669284423504404,13.834659318287292,498.6329303542293,215.9879065737613
1.7089489919100903E12,2.4891304347826084,-6.369565217391304,3.608695652173913,0.1596772861096008,13.679669938048118,13.839347224157718,498.63992615222054,216.02209222580103
1.708948991929622E12,2.4891304347826084,-6.358695652173913,3.619565217391304,0.17979922053804645,13.66387530134622,13.843674521884266,498.65370138331673,215.97319376149105
1.7089489919491538E12,2.4782608695652173,-6.380434782608695,3.6304347826086953,0.19133868114217295,13.718615617587044,13.909954298729218,498.64194555782626,216.0148079412947
1.7089489919686855E12,2.4891304347826084,-6.380434782608695,3.6739130434782608,0.2066284664426406,13.718471374329493,13.925099840772134,498.6520425858549,215.9462202723289
1.7089489919882173E12,2.510869565217391,-6.358695652173913,3.641304347826087,0.18766047807460765,13.729578105160964,13.917238583235573,498.6555044240361,216.01581764409755
1.708948992007749E12,2.4891304347826084,-6.3478260869565215,3.619565217391304,0.14828206876302585,13.701955521339837,13.850237590102862,498.6462728555528,215.99497449338133
1.7089489920272808E12,2.5,-6.358695652173913,3.5978260869565215,0.13140560762949083,13.695536696378792,13.826942304008282,498.6623559787698,216.04264689000215
1.7089489920468125E12,2.4891304347826084,-6.413043478260869,3.608695652173913,0.12794376944825286,13.688685141645092,13.816628911093344,498.6531965319153,216.0425026467446
1.7089489920663442E12,2.510869565217391,-6.4021739130434785,3.6630434782608696,0.13133348600071504,13.683420262744459,13.814753748745174,498.651681977711,216.0790683125339
1.708948992085876E12,2.5217391304347827,-6.423913043478261,3.641304347826087,0.11164428134492414,13.711980427739672,13.823624709084596,498.64677770695425,216.0424305251158
1.7089489921054077E12,2.510869565217391,-6.445652173913043,3.652173913043478,0.17330827394822526,13.77198562288113,13.945293896829355,498.64620073392405,216.09767569275806
1.7089489921249395E12,2.5543478260869565,-6.413043478260869,3.608695652173913,0.6343818467118558,14.345496814906218,14.979878661618073,498.63906069267523,215.78675935110562
1.7089489921444714E12,2.5760869565217392,-6.391304347826087,3.4891304347826084,0.14193536543075627,13.694815480091034,13.83675084552179,498.64576800415136,216.0779143664735
1.7089489921640032E12,2.402173913043478,-6.358695652173913,3.793478260869565,0.1574415156175513,13.736573903152218,13.894015418769769,498.6493740855902,216.0841168265482
1.708948992183535E12,2.4347826086956523,-6.423913043478261,3.652173913043478,0.14806570387669848,13.735419957091805,13.883485660968503,498.6581729243008,216.17823555210063
1.7089489922030667E12,2.5543478260869565,-6.369565217391304,3.5978260869565215,0.15462877209529546,13.722293820654611,13.876922592749906,498.66581781695106,216.16619124009506
1.7089489922225984E12,2.4891304347826084,-6.25,3.6630434782608696,0.16090335379878926,13.722005334139508,13.882908687938297,498.66221173551224,216.1187352083606
1.7089489922421301E12,2.5,-6.3478260869565215,3.5978260869565215,0.17439009837986214,13.71717318501153,13.891563283391392,498.65572078892245,216.23449042254575
1.7089489922616619E12,2.4782608695652173,-6.423913043478261,3.782608695652174,0.19040109996808768,13.742632119969382,13.933033219937471,498.6490855990751,216.14931477896153
1.7089489922811936E12,2.5,-6.445652173913043,3.641304347826087,0.21658125121369973,13.751142472164926,13.967723723378626,498.65781231615694,216.27358034534222
1.7089489923007253E12,2.510869565217391,-6.413043478260869,3.6956521739130435,0.24377110526217285,13.772201987767458,14.015973093029631,498.6618511273684,216.20282902751316
1.708948992320257E12,2.467391304347826,-6.380434782608695,3.5543478260869565,0.2932465426023653,13.829178074500334,14.122424617102698,498.6570189782404,216.30978540298767
1.7089489923397888E12,2.4782608695652173,-6.326086956521739,3.6739130434782608,0.3298843300204671,13.863003118396177,14.192887448416645,498.6582450459296,216.21905639398773
1.7089489923593206E12,2.4347826086956523,-6.358695652173913,3.6304347826086953,0.34488562880583157,13.880528674188694,14.225414302994526,498.6580286810433,216.2074448117548
1.7089489923788523E12,2.467391304347826,-6.315217391304348,3.6630434782608696,0.2842313390053915,13.86451767260047,14.148749011605862,498.6520425858549,216.27805188632632
1.708948992398384E12,2.4782608695652173,-6.391304347826087,3.6739130434782608,0.2303564823098758,13.76924500098765,13.999601483297527,498.6415849496824,216.27747491329612
1.7089489924179158E12,2.510869565217391,-6.413043478260869,3.7065217391304346,0.17258705766046736,13.681256613881185,13.853843671541652,498.6474268016132,216.3526256504805
1.7089489924374475E12,2.532608695652174,-6.423913043478261,3.652173913043478,0.1645094352375788,13.656807381726193,13.82131681696377,498.6288194213891,216.2882931576125
1.7089489924569792E12,2.5,-6.423913043478261,3.608695652173913,0.15931667796572185,13.628391459988531,13.787708137954253,498.64108009828095,216.31807939029687
1.708948992476511E12,2.532608695652174,-6.391304347826087,3.7065217391304346,0.15311421789100385,13.63646908241142,13.789583300302423,498.6486528693024,216.293918644657
1.7089489924960427E12,2.532608695652174,-6.315217391304348,3.619565217391304,0.15780212376143024,13.618366553588697,13.776168677350126,498.65781231615694,216.36366025968317
1.7089489925155745E12,2.467391304347826,-6.326086956521739,3.8260869565217392,0.16869248970657466,13.617501094043387,13.786193583749961,498.6650966006633,216.32781581018162
1.7089489925351062E12,2.5217391304347827,-6.369565217391304,3.641304347826087,0.17265917928924315,13.618510796846248,13.79116997613549,498.6576680728994,216.3990719794121
1.708948992554638E12,2.5,-6.358695652173913,3.7717391304347827,0.1668173273584041,13.636252717525092,13.803070044883496,498.6485086260449,216.3561596102905
1.70894899257417E12,2.5217391304347827,-6.380434782608695,3.7391304347826084,0.16270639451818403,13.623919919004432,13.786626313522616,498.63394005703213,216.42503576577138
1.7089489925937017E12,2.5,-6.380434782608695,3.7391304347826084,0.16999067902453888,13.616996242641957,13.786986921666495,498.64136858479606,216.3838543157404
1.7089489926132334E12,2.4565217391304346,-6.3478260869565215,3.75,0.1690530978504536,13.613895012604598,13.78294811045505,498.63509400309255,216.44198434853368
1.7089489926327651E12,2.4782608695652173,-6.315217391304348,3.7282608695652173,0.18030407193947698,13.610505296052136,13.790809367991612,498.6313436783962,216.40570716925947
1.7089489926522969E12,2.4782608695652173,-6.304347826086956,3.6739130434782608,0.1636439756922693,13.60819740393131,13.771841379623579,498.63711340869827,216.47804516292157
1.7089489926718286E12,2.467391304347826,-6.3478260869565215,3.7065217391304346,0.17979922053804645,13.635315136351007,13.815114356889053,498.6403588819932,216.5658893067705
1.7089489926913604E12,2.4891304347826084,-6.391304347826087,3.7282608695652173,0.17338039557700105,13.62911267627629,13.80249307185329,498.64526315275,216.57324571290562
1.708948992710892E12,2.510869565217391,-6.4021739130434785,3.717391304347826,0.18369378849193915,13.611226512339893,13.794920300831832,498.6570910998692,216.7079689154588
1.7089489927304238E12,2.532608695652174,-6.391304347826087,3.75,0.17907800425028852,13.603797984575987,13.782875988826275,498.65745170801307,216.63866003020527
1.7089489927499556E12,2.543478260869565,-6.3478260869565215,3.7391304347826084,0.17056765205474522,13.618510796846248,13.789078448900993,498.6469940718406,216.71525319996516
1.7089489927694873E12,2.543478260869565,-6.33695652173913,3.7717391304347827,0.20446481757936688,13.636541204040194,13.841006021619561,498.6568026133541,216.65005524755185
1.708948992789019E12,2.543478260869565,-6.315217391304348,3.7717391304347827,0.22184613011433246,13.631925419798543,13.853771549912876,498.65211470748363,216.74655398685385
1.7089489928085508E12,2.543478260869565,-6.33695652173913,3.782608695652174,0.2091527234497933,13.654571611234141,13.863724334683935,498.6672602495266,216.77208504344048
1.7089489928280825E12,2.543478260869565,-6.3478260869565215,3.793478260869565,0.1808810449696833,13.636901812184075,13.817782857153757,498.64735467998446,216.8319459953244
1.7089489928476143E12,2.5760869565217392,-6.3478260869565215,3.782608695652174,0.17410161186475898,13.595936727039426,13.770038338904184,498.65456684286204,216.86714135016697
1.708948992867146E12,2.532608695652174,-6.326086956521739,3.793478260869565,0.16429307035125143,13.60358161968966,13.76787469004091,498.64822013952977,216.94048904663197
1.7089489928866777E12,2.532608695652174,-6.369565217391304,3.782608695652174,0.1619851782304261,13.597811889387597,13.759797067618022,498.65572078892245,216.98736810533623
1.7089489929062095E12,2.543478260869565,-6.33695652173913,3.7391304347826084,0.15823485353408498,13.598460984046579,13.756695837580663,498.66877480373086,217.00128757968994
1.7089489929257412E12,2.5760869565217392,-6.33695652173913,3.782608695652174,0.16277851614695982,13.58252210408713,13.745300620234088,498.6769245477825,217.07730377641963
1.708948992945273E12,2.5543478260869565,-6.3478260869565215,3.8260869565217392,0.5455280000600815,14.134324685850704,14.679852685910785,498.66437538437555,217.056604868961
1.7089489929648047E12,2.5543478260869565,-6.326086956521739,3.8369565217391304,0.2944726102915538,13.921133151189466,14.215605761481019,498.68182881853926,217.10290695463505
1.7089489929843367E12,2.5869565217391304,-6.293478260869565,3.5760869565217392,0.18881442413502028,13.606033755068035,13.794848179203056,498.6692796551323,217.2397216844227
1.7089489930038684E12,2.4565217391304346,-6.304347826086956,4.021739130434782,0.19790174936076993,13.646349745553701,13.844251494914472,498.65370138331673,217.51457721168725
1.7089489930234001E12,2.630434782608696,-6.315217391304348,3.467391304347826,0.20316662826140267,13.649090367447181,13.852256995708585,498.65572078892245,217.56729812232234
1.708948993042932E12,2.532608695652174,-6.315217391304348,3.9565217391304346,0.2177351972741124,13.654932219378022,13.872667416652135,498.66394265460286,217.94218634869893
1.7089489930624636E12,2.5978260869565215,-6.33695652173913,3.6630434782608696,0.22033157591004085,13.648369151159423,13.868700727069465,498.6606250596792,218.00760066599855
1.7089489930819954E12,2.543478260869565,-6.358695652173913,3.8369565217391304,0.23893895613419489,13.679381451533015,13.91832040766721,498.65016742350673,218.2300237691431
1.708948993101527E12,2.5652173913043477,-6.391304347826087,3.7065217391304346,0.2473050650721866,13.719769563647457,13.967074628719644,498.64562376089384,218.2189891599404
1.7089489931210588E12,2.510869565217391,-6.3478260869565215,3.8369565217391304,0.27514401377964187,13.707869494899452,13.983013508679093,498.65528805914977,218.19143869774805
1.7089489931405906E12,2.5543478260869565,-6.326086956521739,3.7391304347826084,0.319570937105529,13.75107035053615,14.07064128764168,498.6580286810433,218.36893002616526
1.7089489931601223E12,2.5217391304347827,-6.282608695652174,3.7391304347826084,0.3493571697899306,13.787347529810374,14.136704699600305,498.6471383150981,218.35760693044747
1.708948993179654E12,2.5217391304347827,-6.304347826086956,3.7391304347826084,0.3830379704282249,13.837688426695875,14.2207263971241,498.6573074647555,218.45417779137824
1.7089489931991858E12,2.532608695652174,-6.304347826086956,3.7391304347826084,0.36659423906734456,13.843746643513041,14.210340882580386,498.6519704642261,218.37520460786877
1.7089489932187175E12,2.5217391304347827,-6.326086956521739,3.760869565217391,0.2693021618488028,13.796579098293675,14.065881260142477,498.63624794915296,218.44869654759128
1.7089489932382493E12,2.5652173913043477,-6.3478260869565215,3.7391304347826084,0.22790434693149889,13.721716847624403,13.949621194555903,498.63581521938033,218.38962893362392
1.708948993257781E12,2.5543478260869565,-6.380434782608695,3.782608695652174,0.21405699420654706,13.691858493311226,13.905915487517774,498.63906069267523,218.40787570570419
1.7089489932773127E12,2.543478260869565,-6.369565217391304,3.6739130434782608,0.19465627606585933,13.671808680511555,13.866464956577415,498.6388443277889,218.42064123399751
1.7089489932968445E12,2.5543478260869565,-6.380434782608695,3.8043478260869565,0.1919156541723793,13.686882100925697,13.878797755098077,498.6381952331299,218.42792551850386
1.7089489933163762E12,2.532608695652174,-6.326086956521739,3.608695652173913,0.190978072998294,13.687603317213455,13.87858139021175,498.6549274510059,218.39734594790292
1.708948993335908E12,2.467391304347826,-6.380434782608695,3.793478260869565,0.1895356404227782,13.690560303993262,13.880095944416041,498.64519103112116,218.4006635428266
1.7089489933554397E12,2.543478260869565,-6.358695652173913,3.717391304347826,0.1831168154617328,13.702532494370045,13.885649309831777,498.6594711136188,218.39128773108575
1.7089489933749714E12,2.532608695652174,-6.326086956521739,3.8152173913043477,0.18499197780990337,13.722726550427266,13.907718528237169,498.6590383838461,218.3747718780961
1.7089489933945032E12,2.5217391304347827,-6.380434782608695,3.782608695652174,0.1903289783393119,13.733184186599754,13.923513164939067,498.66112991108065,218.35522691669786
1.7089489934140352E12,2.510869565217391,-6.33695652173913,3.7717391304347827,0.17886163936396116,13.72489019929054,13.9037518386545,498.6615626408533,218.3495293080246
1.708948993433567E12,2.510869565217391,-6.33695652173913,3.793478260869565,0.17518343629639582,13.73260721356955,13.907790649865944,498.67389543937395,218.42460792358017
1.7089489934530986E12,2.510869565217391,-6.315217391304348,3.6956521739130435,0.17547192281149898,13.721500482738078,13.896972405549576,498.6653850871784,218.34873597010804
1.7089489934726304E12,2.5,-6.326086956521739,3.75,0.17806830144742747,13.758066148527403,13.93613444997483,498.65427835634694,218.40225021865967
1.708948993492162E12,2.510869565217391,-6.33695652173913,3.7391304347826084,0.17273130091801894,13.741622417166523,13.914353718084541,498.65781231615694,218.2594493936836
1.7089489935116938E12,2.510869565217391,-6.391304347826087,3.75,0.17193796300148523,13.765855284435188,13.937793247436673,498.6657456953223,218.29154351848885
1.7089489935312256E12,2.532608695652174,-6.369565217391304,3.7282608695652173,0.17799617981865168,13.768595906328668,13.94659208614732,498.66790934418555,218.16857614142612
1.7089489935507573E12,2.5,-6.358695652173913,3.7282608695652173,0.17316403069067368,13.76823529818479,13.941399328875463,498.6653850871784,218.2103345644873
1.708948993570289E12,2.467391304347826,-6.358695652173913,3.7065217391304346,0.1823955991739749,13.759724945989246,13.94212054516322,498.66762085767044,218.21552732175917
1.7089489935898208E12,2.4565217391304346,-6.293478260869565,3.6956521739130435,0.1988393305348552,13.82304773605439,14.021887066589246,498.6612741543382,218.10474849995956
1.7089489936093525E12,2.4456521739130435,-6.326086956521739,3.7391304347826084,0.222350981515763,13.8239131955997,14.046264177115463,498.66762085767044,218.11196066283713
1.7089489936288843E12,2.467391304347826,-6.358695652173913,3.75,0.21268668325980702,13.851463657792051,14.064150341051858,498.6657456953223,218.03767538519807
1.708948993648416E12,2.4891304347826084,-6.369565217391304,3.717391304347826,0.19292535697524035,13.86141644256311,14.054341799538351,498.66069718130797,218.06248522549694
1.7089489936679478E12,2.5217391304347827,-6.380434782608695,3.6739130434782608,0.15924455633694606,13.791097854506715,13.95034241084366,498.6648081141482,218.0081055174
1.7089489936874795E12,2.510869565217391,-6.369565217391304,3.75,0.1603263807685829,13.810282207761075,13.970608588529657,498.65146561282467,218.0267850192529
1.7089489937070112E12,2.510869565217391,-6.391304347826087,3.717391304347826,0.1463347847860795,13.829105952871556,13.975440737657635,498.6751936286919,217.96829437831576
1.708948993726543E12,2.510869565217391,-6.391304347826087,3.717391304347826,0.1528257313759007,13.833433250598103,13.986258981974004,498.6549274510059,217.95963978286267
1.7089489937460747E12,2.532608695652174,-6.369565217391304,3.717391304347826,0.1394111084236036,13.863291604911282,14.002702713334886,498.6394934224479,217.89198969507095
1.7089489937656064E12,2.5543478260869565,-6.380434782608695,3.7282608695652173,0.5772615167214294,14.336842219453123,14.914103736174553,498.6370412870695,217.70728620377616
1.7089489937851382E12,2.510869565217391,-6.358695652173913,3.6630434782608696,0.35166506191075586,14.115140332596342,14.466805394507098,498.65016742350673,217.61965842481357
1.70894899380467E12,2.532608695652174,-6.304347826086956,3.4565217391304346,0.18369378849193915,13.916301002061488,14.099994790553426,498.63624794915296,217.79577944228404
1.708948993824202E12,2.3043478260869565,-6.391304347826087,4.1521739130434785,0.1848477345523518,13.906708825434308,14.091556559986659,498.6382673547587,217.72077294835722
1.7089489938437336E12,2.641304347826087,-6.4021739130434785,3.369565217391304,0.17943861239416747,13.932816855051144,14.11225546744531,498.6471383150981,217.76541623656945
1.7089489938632654E12,2.5217391304347827,-6.293478260869565,3.7717391304347827,0.18528046432500653,13.933465949710127,14.118746414035133,498.65031166676425,217.7008673788151
1.708948993882797E12,2.532608695652174,-6.326086956521739,3.510869565217391,0.19544961398239305,13.941182963989135,14.136632577971529,498.6467055853255,217.60710926140658
1.7089489939023289E12,2.5217391304347827,-6.4021739130434785,3.782608695652174,0.2067005880714164,13.955535168115517,14.162235756186934,498.64915772070384,217.69214066173325
1.7089489939218606E12,2.532608695652174,-6.413043478260869,3.641304347826087,0.213047291403686,13.985826252201349,14.198873543605036,498.63870008453137,217.63227970984934
1.7089489939413923E12,2.5543478260869565,-6.445652173913043,3.75,0.23699167215724853,14.049509650410373,14.286501322567622,498.6405752468795,217.69026549938508
1.708948993960924E12,2.5978260869565215,-6.391304347826087,3.619565217391304,0.2622342422287753,14.057370907946934,14.31960515017571,498.6361758275242,217.59059340841694
1.7089489939804558E12,2.543478260869565,-6.326086956521739,3.641304347826087,0.31430605820489627,14.131295577442119,14.445601635647016,498.6398540305918,217.6359579129169
1.7089489939999875E12,2.532608695652174,-6.304347826086956,3.641304347826087,0.330244938164346,14.137570159145612,14.467815097309959,498.648148017901,217.52265483411014
1.7089489940195193E12,2.5543478260869565,-6.3478260869565215,3.6739130434782608,0.3153157610077573,14.147306579030344,14.462622340038102,498.6580286810433,217.46712117995278
1.708948994039051E12,2.543478260869565,-6.3478260869565215,3.641304347826087,0.23230376628682214,14.087301383888887,14.31960515017571,498.643964963432,217.45312958397028
1.7089489940585828E12,2.543478260869565,-6.369565217391304,3.6304347826086953,0.1825398424315265,14.046408420373014,14.22894826280454,498.6500953018779,217.43358462257203
1.7089489940781145E12,2.510869565217391,-6.4021739130434785,3.6630434782608696,0.15679242095856918,13.989360212011364,14.146152632969933,498.6410079766522,217.4604859901054
1.7089489940976462E12,2.532608695652174,-6.369565217391304,3.6630434782608696,0.14157475728687732,13.970103737128227,14.111678494415104,498.62564606972296,217.4000480651913
1.708948994117178E12,2.543478260869565,-6.391304347826087,3.652173913043478,0.14381052777892683,13.981138346330924,14.124948874109851,498.6493740855902,217.41122691765153
1.7089489941367097E12,2.5543478260869565,-6.391304347826087,3.7065217391304346,0.14777721736159533,13.989865063412795,14.13764228077439,498.6478595313859,217.3481926141015
1.7089489941562415E12,2.5869565217391304,-6.358695652173913,3.6630434782608696,0.15152754205793645,13.969887372241901,14.121414914299837,498.6414407064248,217.38728253689797
1.7089489941757732E12,2.5760869565217392,-6.369565217391304,3.7391304347826084,0.14265658171851417,13.998447537237114,14.141104118955628,498.6399982738493,217.30989602922156
1.708948994195305E12,2.5869565217391304,-6.33695652173913,3.641304347826087,0.1402044463401373,13.992028712276069,14.132233158616206,498.6444698148334,217.36600665640913
1.7089489942148367E12,2.5652173913043477,-6.33695652173913,3.684782608695652,0.14597417664220055,14.011285187159205,14.157259363801405,498.6486528693024,217.29590443323906
1.7089489942343684E12,2.5869565217391304,-6.380434782608695,3.684782608695652,0.1527536097471249,13.999457240039975,14.1522108497871,498.65233107237,217.36124662890992
1.7089489942539004E12,2.5543478260869565,-6.358695652173913,3.717391304347826,0.1527536097471249,14.005082727084487,14.157836336831611,498.648148017901,217.29532746020885
1.7089489942734321E12,2.5760869565217392,-6.391304347826087,3.7065217391304346,0.14705600107383743,14.006308794773675,14.153364795847512,498.6500953018779,217.34061984308005
1.7089489942929639E12,2.532608695652174,-6.380434782608695,3.6630434782608696,0.1479935822479227,14.002486348448558,14.15047993069648,498.6606250596792,217.28825954058883
1.7089489943124956E12,2.5543478260869565,-6.33695652173913,3.641304347826087,0.14525296035444266,14.004145145910401,14.149398106264844,498.64764316649956,217.28999045967944
1.7089489943320273E12,2.5652173913043477,-6.369565217391304,3.6304347826086953,0.1463347847860795,14.00537121359959,14.151705998385669,498.66112991108065,217.3568472095546
1.708948994351559E12,2.5760869565217392,-6.358695652173913,3.641304347826087,0.15470089372407125,14.002991199849989,14.15769209357406,498.63870008453137,217.24974659082255
1.7089489943710908E12,2.5869565217391304,-6.358695652173913,3.6739130434782608,0.15224875834569435,13.984528062883387,14.13677682122908,498.65002318024915,217.31645909744014
1.7089489943906226E12,2.5652173913043477,-6.358695652173913,3.641304347826087,0.15700878584489655,13.999168753524872,14.156177539369768,498.6492298423326,217.25169387479949
1.7089489944101543E12,2.5760869565217392,-6.369565217391304,3.641304347826087,0.1652306515253367,14.003279686365092,14.168510337890428,498.6593268703612,217.33427313974778
1.708948994429686E12,2.5652173913043477,-6.369565217391304,3.6304347826086953,0.18304469383295702,14.043956284994637,14.227000978827594,498.6540619914606,217.2459962661262
1.7089489944492178E12,2.5652173913043477,-6.380434782608695,3.619565217391304,0.21513881863818393,14.028594378065394,14.243733196703579,498.66286083017127,217.33809558607288
1.7089489944687495E12,2.5543478260869565,-6.3478260869565215,3.6630434782608696,0.1996326684513889,14.041432027987483,14.241064696438873,498.65355714005915,217.3416295458829
1.7089489944882812E12,2.5543478260869565,-6.380434782608695,3.652173913043478,0.16660096247207673,14.040566568442175,14.207167530914251,498.6344449084336,217.32691673361265
1.708948994507813E12,2.5543478260869565,-6.369565217391304,3.641304347826087,0.14301718986239315,14.002486348448558,14.145503538310951,498.63242550282786,217.29777959558723
1.7089489945273447E12,2.543478260869565,-6.358695652173913,3.641304347826087,0.15715302910244813,13.99354326648036,14.150696295582808,498.63870008453137,217.21476760086628
1.7089489945468765E12,2.543478260869565,-6.369565217391304,3.6630434782608696,0.14207960868830785,13.98719656314809,14.129276171836398,498.6467055853255,217.20070388325502
1.7089489945664082E12,2.532608695652174,-6.380434782608695,3.6630434782608696,0.1339298646366435,14.024916174997829,14.158846039634472,498.64634497718157,217.16998006939653
1.70894899458594E12,2.5760869565217392,-6.391304347826087,3.641304347826087,0.11186064623125151,14.05556786722754,14.167428513458791,498.65867777570224,217.19688143692989
1.7089489946054717E12,2.5652173913043477,-6.358695652173913,3.652173913043478,0.47412758757204865,14.313979663131198,14.788107250703247,498.6493740855902,216.9787856315119
1.7089489946250034E12,2.5760869565217392,-6.3478260869565215,3.5543478260869565,0.22977950927966945,14.102230561045475,14.332010070325145,498.6576680728994,217.011240364461
1.7089489946445352E12,2.5543478260869565,-6.304347826086956,3.5869565217391304,0.17893376099273695,14.050735718099562,14.229669479092298,498.6634378032015,217.0381417319944
1.7089489946640671E12,2.391304347826087,-6.434782608695652,3.9456521739130435,0.16104759705634084,14.054486042795903,14.215533639852243,498.6542062347182,217.11711491550386
1.7089489946835989E12,2.641304347826087,-6.380434782608695,3.402173913043478,0.16249002963185666,14.071362503929437,14.233852533561294,498.65370138331673,217.06958676214063
1.7089489947031306E12,2.5,-6.282608695652174,3.717391304347826,0.17316403069067368,14.078791031693346,14.251955062384019,498.65117712630956,217.10961426611118
1.7089489947226624E12,2.543478260869565,-6.369565217391304,3.510869565217391,0.17777981493232428,14.077060112602727,14.25483992753505,498.64858074767363,217.06021095039978
1.708948994742194E12,2.5,-6.413043478260869,3.7282608695652173,0.1935023300054467,14.093287479077278,14.286789809082725,498.63271398934296,217.1525266352328
1.7089489947617258E12,2.532608695652174,-6.413043478260869,3.6739130434782608,0.20814302064693221,14.112471832331638,14.32061485297857,498.63927705756157,217.09684873781788
1.7089489947812576E12,2.543478260869565,-6.423913043478261,3.684782608695652,0.23028436068109998,14.13006950975293,14.36035387043403,498.6465613420679,217.03201139354843
1.7089489948007893E12,2.5760869565217392,-6.391304347826087,3.5978260869565215,0.2786779735896556,14.171250959783908,14.449928933373563,498.6436764769169,217.10009421111278
1.708948994820321E12,2.5760869565217392,-6.380434782608695,3.684782608695652,0.30731026021364455,14.208393598603442,14.515703858817085,498.64886923418874,217.00193667434894
1.7089489948398528E12,2.5543478260869565,-6.391304347826087,3.6304347826086953,0.33644739823906405,14.249286562119313,14.585733960358377,498.64237828759894,217.08884323702375
1.7089489948593845E12,2.5543478260869565,-6.3478260869565215,3.641304347826087,0.3213739778249238,14.23529496613681,14.556668943961734,498.6338679354034,216.9796510910572
1.7089489948789163E12,2.5217391304347827,-6.3478260869565215,3.5978260869565215,0.23042860393865158,14.118025197747373,14.348453801686025,498.6444698148334,217.0383580968807
1.708948994898448E12,2.532608695652174,-6.33695652173913,3.6630434782608696,0.2059793717836585,14.042874460563,14.24885383234666,498.63898857104647,216.939190857314
1.7089489949179797E12,2.5760869565217392,-6.380434782608695,3.6304347826086953,0.18845381599114133,13.97774862977846,14.166202445769603,498.63870008453137,216.9242616801574
1.7089489949375115E12,2.5217391304347827,-6.4021739130434785,3.717391304347826,0.1926368704601372,13.965632196144128,14.158269066604266,498.6333630840019,216.86425648501594
1.7089489949570432E12,2.543478260869565,-6.434782608695652,3.7065217391304346,0.1864344103854192,13.959213371183083,14.145647781568503,498.6288194213891,216.85863099797143
1.708948994976575E12,2.532608695652174,-6.4021739130434785,3.6956521739130435,0.18816532947603817,13.938514463724431,14.12667979320047,498.64879711256,216.82004592657637
1.7089489949961067E12,2.510869565217391,-6.33695652173913,3.717391304347826,0.18903078902134765,13.936422936489933,14.125453725511282,498.6498789369916,216.8170168181678
1.7089489950156384E12,2.532608695652174,-6.380434782608695,3.717391304347826,0.1941514246644288,13.94161569376179,14.13576711842622,498.63610370589544,216.82913325180212
1.7089489950351702E12,2.5760869565217392,-6.33695652173913,3.6630434782608696,0.2052581554959006,13.926686516605201,14.131944672101103,498.63581521938033,216.82906113017336
1.708948995054702E12,2.5543478260869565,-6.326086956521739,3.7282608695652173,0.21001818299510278,13.933105341566247,14.14312352456135,498.6352382463501,216.92678593716457
1.7089489950742336E12,2.532608695652174,-6.380434782608695,3.6630434782608696,0.20201268220099,13.923729529825394,14.125742212026385,498.6379067466148,216.8652661878188
1.7089489950937656E12,2.532608695652174,-6.3478260869565215,3.717391304347826,0.2176630756453366,13.916805853462918,14.134468929108255,498.6279539618438,216.92354046386964
1.7089489951132974E12,2.5217391304347827,-6.369565217391304,3.717391304347826,0.2088642369346901,13.919618596985174,14.128482833919865,498.634949759835,216.90536581341814
1.708948995132829E12,2.543478260869565,-6.3478260869565215,3.652173913043478,0.2183842919330945,13.906059730775326,14.12444402270842,498.64382072017446,216.99919605245546
1.7089489951523608E12,2.532608695652174,-6.3478260869565215,3.684782608695652,0.20879211530591432,13.915435542516178,14.124227657822093,498.63516612472137,216.9344308298148
1.7089489951718926E12,2.5543478260869565,-6.33695652173913,3.7065217391304346,0.208215142275708,13.903751838654498,14.111966980930207,498.62831456998765,217.03280473146498
1.7089489951914243E12,2.5652173913043477,-6.358695652173913,3.75,0.20222904708731737,13.892284499679148,14.094513546766466,498.63509400309255,216.9752516717019
1.708948995210956E12,2.5652173913043477,-6.4021739130434785,3.7282608695652173,0.2090806018210175,13.90389608191205,14.112976683733068,498.6436043552881,217.0604273152861
1.7089489952304878E12,2.5543478260869565,-6.380434782608695,3.6956521739130435,0.21232607511592808,13.88009594441604,14.092422019531968,498.6459843690377,217.125120416298
1.7089489952500195E12,2.5652173913043477,-6.358695652173913,3.7282608695652173,0.22292795454596934,13.897837865094886,14.120765819640855,498.6333630840019,217.1101912391414
1.7089489952695513E12,2.543478260869565,-6.326086956521739,3.7282608695652173,0.24925234904913296,13.925244084029686,14.174496433078819,498.6531965319153,217.18353893560638
1.708948995289083E12,2.532608695652174,-6.304347826086956,3.7065217391304346,0.2514159979124067,13.934475652512987,14.185891650425393,498.65031166676425,217.156637568073
1.7089489953086147E12,2.543478260869565,-6.3478260869565215,3.760869565217391,0.2504062951095456,13.92704712474908,14.177453419858626,498.6562256403239,217.25075629362541
1.7089489953281465E12,2.543478260869565,-6.369565217391304,3.717391304347826,0.22956314439334208,13.863580091426384,14.093143235819726,498.6560813970663,217.25652602392748
1.7089489953476782E12,2.532608695652174,-6.358695652173913,3.7282608695652173,0.21016242625265436,13.85730550972289,14.067467935975545,498.6555044240361,217.3308834231953
1.70894899536721E12,2.5543478260869565,-6.380434782608695,3.717391304347826,0.21355214280511653,13.857089144836563,14.07064128764168,498.65572078892245,217.30614570452522
1.7089489953867417E12,2.5652173913043477,-6.380434782608695,3.7391304347826084,0.2238655357200546,13.840284805331803,14.064150341051858,498.6578844377857,217.3988941191309
1.7089489954062734E12,2.5869565217391304,-6.3478260869565215,3.717391304347826,0.21088364254041228,13.854420644571858,14.065304287112271,498.6531965319153,217.4280312571563
1.7089489954258052E12,2.5652173913043477,-6.33695652173913,3.760869565217391,0.33659164149661563,13.910387028501873,14.246978669998489,498.6370412870695,217.54782528255288
1.708948995445337E12,2.5652173913043477,-6.369565217391304,3.8478260869565215,0.629477575955102,14.541884010062697,15.171361586017799,498.6381952331299,217.27708068812856
1.7089489954648687E12,2.5869565217391304,-6.282608695652174,3.6304347826086953,0.22581281969700095,13.833072642454225,14.058885462151226,498.6540619914606,217.6190093301546
1.7089489954844004E12,2.4239130434782608,-6.33695652173913,3.8260869565217392,0.24694445692830766,13.879518971385835,14.126463428314143,498.63870008453137,217.6592531990115
1.7089489955039321E12,2.4565217391304346,-6.33695652173913,3.6630434782608696,0.23756864518745485,13.874037727598873,14.111606372786328,498.6441813283183,217.63054879075872
1.708948995523464E12,2.5652173913043477,-6.33695652173913,3.7065217391304346,0.250262051851994,13.866681321463743,14.116943373315737,498.65298016702894,217.74882826195102
1.7089489955429958E12,2.532608695652174,-6.293478260869565,3.8043478260869565,0.2490359841628056,13.863796456312711,14.112832440475517,498.6430995038867,217.71824869135008
1.7089489955625276E12,2.5652173913043477,-6.391304347826087,3.7282608695652173,0.26273909363020587,13.8831971744534,14.145936268083606,498.64475830134853,217.8290275131497
1.7089489955820593E12,2.543478260869565,-6.4021739130434785,3.858695652173913,0.2755767435522966,13.901588189791227,14.177164933343523,498.6477874097571,217.76397380399393
1.708948995601591E12,2.532608695652174,-6.423913043478261,3.760869565217391,0.3082478413877298,13.898991811155298,14.207239652543027,498.62499697506394,217.89711033071404
1.7089489956211228E12,2.5217391304347827,-6.33695652173913,3.8043478260869565,0.3330576816866019,13.926758638233977,14.25981631992058,498.62261696131435,217.84475002822282
1.7089489956406545E12,2.5217391304347827,-6.315217391304348,3.7065217391304346,0.3865719302382386,13.975224372771308,14.361796303009546,498.6582450459296,217.96944832437617
1.7089489956601863E12,2.5217391304347827,-6.260869565217391,3.760869565217391,0.42847459655697306,13.987268684776867,14.415743281333839,498.6549274510059,217.90388976381897
1.708948995679718E12,2.532608695652174,-6.293478260869565,3.782608695652174,0.4281139884130941,14.008183957121846,14.436297945534939,498.6576680728994,217.88874422177605
1.7089489956992498E12,2.5217391304347827,-6.358695652173913,3.793478260869565,0.35159294028198007,13.994697212540771,14.346290152822752,498.6612020327094,217.9481724438873
1.7089489957187815E12,2.543478260869565,-6.3478260869565215,3.793478260869565,0.2999538540785139,13.897044527178352,14.196998381256865,498.66762085767044,217.9452154571075
1.7089489957383132E12,2.5652173913043477,-6.3478260869565215,3.8043478260869565,0.2474493083297382,13.828601101470126,14.076050409799864,498.65723534312673,218.02707350576802
1.708948995757845E12,2.5543478260869565,-6.33695652173913,3.8152173913043477,0.2467280920419803,13.784606907916894,14.031334999958874,498.6668275197539,218.0077449092561
1.7089489957773767E12,2.5652173913043477,-6.358695652173913,3.7282608695652173,0.24362686200462128,13.791458462650594,14.035085324655215,498.66221173551224,218.1007096887481
1.7089489957969084E12,2.5217391304347827,-6.271739130434782,3.8478260869565215,0.23475590166519902,13.782803867197499,14.017559768862698,498.67317422308616,218.1635276274118
1.7089489958164402E12,2.510869565217391,-6.282608695652174,3.75,0.22177400848555667,13.791674827536921,14.013448836022478,498.6607693029367,218.3012078167448
1.708948995835972E12,2.5217391304347827,-6.315217391304348,3.760869565217391,0.22206249500065983,13.806387639807182,14.028450134807843,498.6668996413827,218.3273879679904
1.7089489958555037E12,2.532608695652174,-6.315217391304348,3.8478260869565215,0.23244800954437372,13.804656720716563,14.037104730260937,498.65355714005915,218.41148178714298
1.7089489958750354E12,2.5543478260869565,-6.358695652173913,3.760869565217391,0.24095836173991703,13.804945207231667,14.045903568971584,498.6508165181657,218.4054956919546
1.7089489958945671E12,2.543478260869565,-6.358695652173913,3.8043478260869565,0.24629536226932555,13.813167072912107,14.059462435181432,498.65189834259735,218.44970625039414
1.7089489959140989E12,2.532608695652174,-6.326086956521739,3.782608695652174,0.23641469912704222,13.824995020031336,14.061409719158378,498.66112991108065,218.40109627259926
1.7089489959336309E12,2.543478260869565,-6.3478260869565215,3.782608695652174,0.23468378003642323,13.820956208819892,14.055639988856315,498.65968747850513,218.45929842702134
1.7089489959531626E12,2.532608695652174,-6.315217391304348,3.7282608695652173,0.23316922583213162,13.824345925372354,14.057515151204486,498.65968747850513,218.53488189397837
1.7089489959726943E12,2.532608695652174,-6.315217391304348,3.793478260869565,0.227183130643741,13.816917397608448,14.044100528252189,498.6585335324447,218.4558365888401
1.708948995992226E12,2.543478260869565,-6.380434782608695,3.7717391304347827,0.2239376573488304,13.826148966091749,14.05008662344058,498.6549274510059,218.5103605401946
1.7089489960117578E12,2.543478260869565,-6.4021739130434785,3.7717391304347827,0.21888914333452505,13.829682925901762,14.048572069236288,498.6582450459296,218.4415565063425
1.7089489960312896E12,2.543478260869565,-6.380434782608695,3.7717391304347827,0.22588494132577674,13.82167742510765,14.047562366433427,498.65968747850513,218.50834113458887
1.7089489960508213E12,2.5652173913043477,-6.3478260869565215,3.7391304347826084,0.23468378003642323,13.864806159115572,14.099489939151995,498.66466387089065,218.4325413027455
1.708948996070353E12,2.543478260869565,-6.293478260869565,3.782608695652174,0.26439789109204903,13.850526076617966,14.114923967710014,498.6665390332388,218.51439935140604
1.7089489960898848E12,2.5217391304347827,-6.326086956521739,3.7717391304347827,0.25386813329078356,13.882475958165642,14.136344091456426,498.6645917492619,218.4292958294506
1.7089489961094165E12,2.5217391304347827,-6.33695652173913,3.7391304347826084,0.23389044211988952,13.8969002839208,14.13079072604069,498.65456684286204,218.53459340746326
1.7089489961289482E12,2.5217391304347827,-6.358695652173913,3.7391304347826084,0.2113884939418428,13.84172723790732,14.053115731849163,498.65997596502024,218.55882627473193
1.70894899614848E12,2.532608695652174,-6.3478260869565215,3.75,0.19631507352770253,13.829105952871556,14.02542102639926,498.66437538437555,218.53985828636388
1.7089489961680117E12,2.532608695652174,-6.4021739130434785,3.7282608695652173,0.18333318034806018,13.826725939121957,14.010059119470016,498.66920753350354,218.5607014370801
1.7089489961875435E12,2.532608695652174,-6.33695652173913,3.717391304347826,0.18600168061276445,13.836173872491585,14.022175553104349,498.6674044927841,218.5320691504561
1.7089489962070752E12,2.543478260869565,-6.326086956521739,3.6739130434782608,0.18520834269623074,13.834587196658518,14.019795539354748,498.6502395451355,218.54714257087025
1.708948996226607E12,2.5652173913043477,-6.3478260869565215,3.75,0.430566123791471,14.077564964004157,14.508131087795627,498.6338679354034,218.46600573849747
1.7089489962461387E12,2.5869565217391304,-6.3478260869565215,3.75,0.5114865912779083,14.369080587515903,14.880567178793811,498.64194555782626,218.2630554751224
1.7089489962656704E12,2.619565217391304,-6.315217391304348,3.4456521739130435,0.19790174936076993,13.856872779950235,14.054774529311006,498.664880235777,218.37441126995222
1.7089489962852021E12,2.380434782608696,-6.3478260869565215,4.065217391304348,0.20713331784407116,13.919762840242726,14.126896158086797,498.6621396138835,218.46990030645136
1.708948996304734E12,2.630434782608696,-6.413043478260869,3.4891304347826084,0.19638719515647832,13.90476154145736,14.101148736613839,498.67115481748044,218.45114868296966
1.7089489963242656E12,2.543478260869565,-6.304347826086956,3.793478260869565,0.20619573666998586,13.911324609675958,14.117520346345945,498.6556486672937,218.4913204301978
1.7089489963437974E12,2.532608695652174,-6.3478260869565215,3.5978260869565215,0.21802368378921555,13.91658948857659,14.134613172365807,498.67302997982864,218.42489641009527
1.7089489963633293E12,2.532608695652174,-6.4021739130434785,3.7282608695652173,0.21708610261513028,13.941976301905669,14.1590624045208,498.6562256403239,218.45086019645456
1.708948996382861E12,2.5543478260869565,-6.434782608695652,3.760869565217391,0.22465887363658832,13.960150952357168,14.184809825993757,498.6466334636967,218.38797013616207
1.7089489964023928E12,2.5217391304347827,-6.445652173913043,3.75,0.24636748389810134,13.970536466900882,14.216903950798983,498.6343727868048,218.29536596481395
1.7089489964219246E12,2.5543478260869565,-6.380434782608695,3.684782608695652,0.28242829828599675,14.012871862992272,14.295300161278268,498.64122434153853,218.3456347400707
1.7089489964414563E12,2.5760869565217392,-6.33695652173913,3.608695652173913,0.3122145309703983,14.056721813287954,14.368936344258351,498.6467055853255,218.25425663641175
1.708948996460988E12,2.543478260869565,-6.315217391304348,3.652173913043478,0.3480589804719664,14.10042752032608,14.448486500798047,498.64562376089384,218.3005587220858
1.7089489964805198E12,2.5217391304347827,-6.33695652173913,3.6739130434782608,0.3427941015713336,14.140455024296644,14.483249125867978,498.6474268016132,218.19598236036092
1.7089489965000515E12,2.510869565217391,-6.358695652173913,3.7065217391304346,0.26807609415961436,14.05145693438732,14.319533028546934,498.64605649066647,218.23016801240064
1.7089489965195833E12,2.510869565217391,-6.391304347826087,3.684782608695652,0.22422614386393355,13.994120239510565,14.218346383374499,498.65233107237,218.15472878870116
1.708948996539115E12,2.5543478260869565,-6.413043478260869,3.7065217391304346,0.1801598286819254,13.931807152248282,14.111966980930207,498.65658624846776,218.20687272630607
1.7089489965586467E12,2.532608695652174,-6.4021739130434785,3.6956521739130435,0.17583253095537793,13.929066530354802,14.10489906131018,498.67504938543436,218.11636008219244
1.7089489965781785E12,2.5217391304347827,-6.380434782608695,3.5978260869565215,0.1707840169410726,13.92207073236355,14.092854749304623,498.668414195587,218.10705639208038
1.7089489965977102E12,2.532608695652174,-6.3478260869565215,3.717391304347826,0.15700878584489655,13.934547774141762,14.091556559986659,498.6547832077484,218.0950120800748
1.708948996617242E12,2.532608695652174,-6.3478260869565215,3.5978260869565215,0.14157475728687732,13.95308303273714,14.094657790024018,498.65362926168797,218.08541990344764
1.7089489966367737E12,2.4891304347826084,-6.369565217391304,3.7282608695652173,0.150301474368748,13.940966599102808,14.091268073471555,498.6567304917253,218.07200528049535
1.7089489966563054E12,2.510869565217391,-6.369565217391304,3.684782608695652,0.1589560698218429,13.947890275465284,14.106846345287126,498.6506722749081,218.05729246822509
1.7089489966758372E12,2.532608695652174,-6.369565217391304,3.717391304347826,0.15931667796572185,13.958852763039205,14.118169441004927,498.6562256403239,218.05173910280934
1.708948996695369E12,2.543478260869565,-6.369565217391304,3.7282608695652173,0.16003789425347975,13.948611491753041,14.10864938600652,498.65016742350673,218.04553664273462
1.7089489967149006E12,2.543478260869565,-6.358695652173913,3.7065217391304346,0.1567202993297934,13.941976301905669,14.098696601235462,498.64410920668956,218.12083162317654
1.7089489967344324E12,2.5217391304347827,-6.358695652173913,3.717391304347826,0.15924455633694606,13.959069127925533,14.118313684262478,498.65514381589225,218.02829957345722
1.708948996753964E12,2.510869565217391,-6.358695652173913,3.6956521739130435,0.16566338129799144,13.942697518193427,14.108360899491418,498.6550716942635,218.0849150520462
1.708948996773496E12,2.5,-6.358695652173913,3.7065217391304346,0.15390755580753754,13.983301995194198,14.137209551001735,498.64490254460605,217.9856756908507
1.7089489967930278E12,2.543478260869565,-6.358695652173913,3.6956521739130435,0.15369119092121017,13.957482452092464,14.111173643013673,498.6417291929399,218.05945611708836
1.7089489968125596E12,2.543478260869565,-6.369565217391304,3.7065217391304346,0.16696157061595568,13.953587884138573,14.120549454754528,498.6329303542293,217.98351204198744
1.7089489968320913E12,2.5543478260869565,-6.380434782608695,3.7065217391304346,0.15693666421612076,13.969598885726798,14.126535549942918,498.63595946263786,218.06940890185942
1.708948996851623E12,2.532608695652174,-6.33695652173913,3.6630434782608696,0.1597494077383766,13.968228574780058,14.127977982518434,498.64793165301467,218.11253763586734
1.7089489968711548E12,2.5217391304347827,-6.358695652173913,3.6739130434782608,0.15390755580753754,13.99116325273076,14.145070808538296,498.65442259960446,218.03334808747152
1.7089489968906865E12,2.532608695652174,-6.380434782608695,3.6956521739130435,0.18419863989336968,14.015756728143304,14.199955368036672,498.64410920668956,218.0810204840923
1.7089489969102183E12,2.532608695652174,-6.3478260869565215,3.7065217391304346,0.21232607511592808,13.994408726025668,14.206734801141597,498.65370138331673,217.98466598804785
1.70894899692975E12,2.532608695652174,-6.358695652173913,3.717391304347826,0.1909059513695182,14.028161648292738,14.219067599662257,498.6502395451355,218.05563367076323
1.7089489969492817E12,2.543478260869565,-6.33695652173913,3.717391304347826,0.15679242095856918,14.010419727613895,14.167212148572464,498.6469940718406,218.03774750682683
1.7089489969688135E12,2.5543478260869565,-6.3478260869565215,3.6630434782608696,0.14575781175587318,13.97984015701296,14.125597968768833,498.63509400309255,218.11693705522265
1.7089489969883452E12,2.5652173913043477,-6.3478260869565215,3.6630434782608696,0.14770509573281954,13.973204967165588,14.120910062898407,498.63430066517606,218.0566433735661
1.708948997007877E12,2.532608695652174,-6.358695652173913,3.6739130434782608,0.1338577430078677,13.98856687409483,14.122424617102698,498.63595946263786,218.13770808431008
1.7089489970274087E12,2.5652173913043477,-6.391304347826087,3.7065217391304346,0.1385456488782941,13.975801345801514,14.114346994679808,498.639132814304,218.11073459514793
1.7089489970469404E12,2.5869565217391304,-6.369565217391304,3.6630434782608696,0.12866498573601076,14.026647094088448,14.155312079824458,498.6414407064248,218.15573849150402
1.7089489970664722E12,2.5760869565217392,-6.358695652173913,3.7065217391304346,0.45220261242420823,14.309868730290978,14.762071342715187,498.64634497718157,218.02736199228312
1.708948997086004E12,2.5543478260869565,-6.358695652173913,3.619565217391304,0.23360195560478636,14.06977582809637,14.303377783701157,498.6617790057396,217.98444962316154
1.7089489971055356E12,2.5543478260869565,-6.304347826086956,3.4891304347826084,0.16717793550228305,14.036167149086852,14.203345084589134,498.66394265460286,218.06861556394287
1.7089489971250674E12,2.391304347826087,-6.358695652173913,4.0,0.1676106652749378,14.028522256436618,14.196132921711555,498.65781231615694,218.10179151317973
1.708948997144599E12,2.652173913043478,-6.358695652173913,3.434782608695652,0.15837909679163656,14.042946582191776,14.201325678983412,498.6568026133541,218.12299527203982
1.7089489971641309E12,2.5652173913043477,-6.304347826086956,3.793478260869565,0.16739430038861042,14.059967286582863,14.227361586971472,498.6480758962722,218.0358002228499
1.7089489971836626E12,2.543478260869565,-6.380434782608695,3.543478260869565,0.17374100372088,14.060039408211638,14.233780411932518,498.6498789369916,218.13540019218925
1.7089489972031946E12,2.510869565217391,-6.413043478260869,3.782608695652174,0.18268408568907807,14.0768437477164,14.259527833405476,498.6469219502118,218.05628276542222
1.7089489972227263E12,2.532608695652174,-6.434782608695652,3.6739130434782608,0.2121097102296007,14.092349897903192,14.304459608132793,498.6433879904018,218.1633112625255
1.708948997242258E12,2.5652173913043477,-6.413043478260869,3.717391304347826,0.2325201311731495,14.113842143278378,14.346362274451527,498.6477874097571,218.05527306261936
1.7089489972617898E12,2.5869565217391304,-6.358695652173913,3.5978260869565215,0.27283612165881654,14.178823730805366,14.451659852464182,498.65557654566487,218.15833487013995
1.7089489972813215E12,2.5652173913043477,-6.315217391304348,3.6304347826086953,0.3095460307056941,14.19158925909868,14.501135289804376,498.6403588819932,218.0953005665899
1.7089489973008533E12,2.532608695652174,-6.3478260869565215,3.6630434782608696,0.3358704252088577,14.228659776289437,14.564530201498295,498.6280982051013,218.0456087643634
1.708948997320385E12,2.532608695652174,-6.369565217391304,3.652173913043478,0.2959150428670696,14.253036886815655,14.548951929682724,498.6290357862754,218.07431317261617
1.7089489973399167E12,2.532608695652174,-6.3478260869565215,3.684782608695652,0.2522814574577162,14.171683689556563,14.423965147014279,498.6383394763875,218.01243281512654
1.7089489973594485E12,2.5543478260869565,-6.380434782608695,3.6956521739130435,0.1854968292113339,14.065087922225946,14.250584751437279,498.64194555782626,218.08707870090947
1.7089489973789802E12,2.5869565217391304,-6.380434782608695,3.684782608695652,0.15982152936715238,14.026719215717224,14.186540745084375,498.64259465248523,218.04286814246993
1.708948997398512E12,2.543478260869565,-6.423913043478261,3.6739130434782608,0.1510948122852817,14.00724637594776,14.158341188233042,498.64259465248523,218.10107029689198
1.7089489974180437E12,2.5978260869565215,-6.413043478260869,3.608695652173913,0.14914752830833536,14.00075542935794,14.149902957666274,498.6675487360417,218.0429402640987
1.7089489974375754E12,2.5652173913043477,-6.33695652173913,3.6956521739130435,0.15318633951977964,13.97608983231662,14.129276171836398,498.65398986983183,218.12436558298657
1.7089489974571072E12,2.5217391304347827,-6.304347826086956,3.6630434782608696,0.15946092122327343,13.983878968224404,14.143339889447677,498.655215937521,218.07070709117738
1.708948997476639E12,2.5543478260869565,-6.33695652173913,3.760869565217391,0.14979662296731747,14.00226998356223,14.152066606529548,498.63285823260054,218.12977470514474
1.7089489974961707E12,2.5543478260869565,-6.326086956521739,3.6739130434782608,0.15462877209529546,13.994841455798325,14.14947022789362,498.6379788682436,218.1001327157179
1.7089489975157024E12,2.532608695652174,-6.369565217391304,3.8043478260869565,0.1557105965269323,13.998736023752217,14.154446620279149,498.64439769320467,218.15638758616302
1.7089489975352341E12,2.532608695652174,-6.434782608695652,3.7391304347826084,0.17085613856984838,13.975584980915189,14.146441119485036,498.6303339755934,218.16785492513836
1.7089489975547659E12,2.5543478260869565,-6.391304347826087,3.75,0.15989365099592817,13.970464345272108,14.130357996268035,498.6397097873342,218.22007098437203
1.7089489975742976E12,2.532608695652174,-6.391304347826087,3.7391304347826084,0.16436519198002722,13.972267385991502,14.136632577971529,498.63992615222054,218.21437337569876
1.7089489975938293E12,2.543478260869565,-6.33695652173913,3.717391304347826,0.16854824644902308,13.945942991488337,14.11449123793736,498.6340843002897,218.2925532212917
1.7089489976133613E12,2.5652173913043477,-6.326086956521739,3.717391304347826,0.17424585512231056,13.932312003649713,14.106557858772023,498.64353223365936,218.38811437941962
1.708948997632893E12,2.5652173913043477,-6.358695652173913,3.7065217391304346,0.1722985711453642,13.938442342095655,14.110740913241019,498.64266677411405,218.37758462161835
1.7089489976524248E12,2.5543478260869565,-6.380434782608695,3.760869565217391,0.17590465258415375,13.923224678423963,14.099129331008116,498.64194555782626,218.49196952485676
1.7089489976719565E12,2.5543478260869565,-6.3478260869565215,3.7282608695652173,0.18145801799988961,13.9243065028556,14.10576452085549,498.65968747850513,218.44530683103883
1.7089489976914883E12,2.5652173913043477,-6.369565217391304,3.684782608695652,0.19790174936076993,13.914930691114746,14.112832440475517,498.6526195588851,218.54591650318105
1.70894899771102E12,2.543478260869565,-6.358695652173913,3.6956521739130435,0.1935744516342225,13.90714155520696,14.100716006841184,498.6347333949487,218.5094950806493
1.7089489977305518E12,2.543478260869565,-6.315217391304348,3.6956521739130435,0.21398487257777127,13.934115044369108,14.14809991694688,498.6338679354034,218.5886846290451
1.7089489977500835E12,2.543478260869565,-6.33695652173913,3.7282608695652173,0.2528584304879225,13.908872474297581,14.161730904785504,498.643315868773,218.6369339986961
1.7089489977696152E12,2.5217391304347827,-6.326086956521739,3.75,0.23612621261193903,13.933826557854005,14.169952770465944,498.64533527437874,218.6664317448654
1.708948997789147E12,2.5217391304347827,-6.369565217391304,3.7282608695652173,0.2066284664426406,13.932600490164816,14.139228956607457,498.64021463873564,218.75348255079777
1.7089489978086787E12,2.5217391304347827,-6.33695652173913,3.717391304347826,0.19948842519383733,13.866248591691088,14.065737016884926,498.64266677411405,218.76321897068252
1.7089489978282104E12,2.5760869565217392,-6.358695652173913,3.760869565217391,0.189607762051554,13.862570388623523,14.052178150675077,498.6442534499471,218.79379854128345
1.7089489978477422E12,2.5543478260869565,-6.358695652173913,3.760869565217391,0.195810222126272,13.869494064985998,14.065304287112271,498.65586503218,218.78067240484626
1.708948997867274E12,2.510869565217391,-6.369565217391304,3.75,0.17835678796253063,13.883269296082176,14.061626084044706,498.6498789369916,218.83873031601075
1.7089489978868057E12,2.5217391304347827,-6.380434782608695,3.7391304347826084,0.20345511477650582,13.882620201423192,14.086075316199699,498.6330745974868,218.84918795218326
1.7089489979063374E12,2.543478260869565,-6.3478260869565215,3.8260869565217392,0.6020713570203015,14.340376179263137,14.942447536283439,498.6394934224479,218.73090848099096
1.7089489979258691E12,2.5543478260869565,-6.33695652173913,3.7391304347826084,0.3212297345673722,14.219211842919808,14.540441577487181,498.6786554668731,218.64847345930022
1.708948997945401E12,2.532608695652174,-6.282608695652174,3.6739130434782608,0.14301718986239315,13.980994103073373,14.124011292935766,498.6789439533882,218.93760906906238
1.7089489979649326E12,2.391304347826087,-6.33695652173913,4.065217391304348,0.12123645797210432,14.014314295567788,14.135550753539892,498.6773572775552,218.92138170258784
1.7089489979844644E12,2.630434782608696,-6.326086956521739,3.4891304347826084,0.0994557260818155,14.027440432004981,14.126896158086797,498.67569848009333,219.06317282476104
1.708948998003996E12,2.4565217391304346,-6.293478260869565,3.9456521739130435,0.10161937494508923,14.035373811170318,14.136993186115408,498.6772851559264,219.03360295696297
1.7089489980235278E12,2.532608695652174,-6.326086956521739,3.619565217391304,0.11445702486717999,14.040782933328503,14.155239958195683,498.66336568157266,219.12447620922046
1.7089489980430598E12,2.4782608695652173,-6.380434782608695,3.891304347826087,0.12001039028291588,14.052538758818956,14.172549149101872,498.6811797238803,219.10255123407262
1.7089489980625916E12,2.543478260869565,-6.4021739130434785,3.75,0.12556375569865177,14.086652289229905,14.212216044928557,498.6839203457738,219.05148912089936
1.7089489980821233E12,2.532608695652174,-6.369565217391304,3.8478260869565215,0.1574415156175513,14.121847644072492,14.279289159690043,498.6722366419121,219.15267576607178
1.708948998101655E12,2.543478260869565,-6.33695652173913,3.6956521739130435,0.17871739610640958,14.15682663402875,14.335544030135159,498.68168457528174,219.1046427613071
1.7089489981211868E12,2.5,-6.271739130434782,3.75,0.216148521441045,14.202984476445256,14.419132997886301,498.6493740855902,219.2387168692013
1.7089489981407185E12,2.510869565217391,-6.282608695652174,3.7282608695652173,0.23136618511273685,14.237891344772738,14.469257529885475,498.6735348312301,219.22227313784043
1.7089489981602502E12,2.532608695652174,-6.315217391304348,3.8152173913043477,0.18982412693788137,14.247339278142366,14.437163405080248,498.68074699410766,219.34379808232762
1.708948998179782E12,2.5217391304347827,-6.369565217391304,3.8152173913043477,0.11755825490453899,14.188776515576425,14.306334770480964,498.6740396826315,219.30860272748504
1.7089489981993137E12,2.5543478260869565,-6.358695652173913,3.8369565217391304,0.08120895400154043,14.112471832331638,14.193680786333179,498.6772851559264,219.38671045144923
1.7089489982188455E12,2.543478260869565,-6.326086956521739,3.8260869565217392,0.05582214067246207,14.046913271774445,14.102735412446906,498.66935177676106,219.4979220030215
1.7089489982383772E12,2.543478260869565,-6.326086956521739,3.8043478260869565,0.046229964045281895,14.048644190865064,14.094874154910345,498.66675539812513,219.5384543583935
1.708948998257909E12,2.5,-6.293478260869565,3.8152173913043477,0.05185545108979358,14.025276783141708,14.0771322342315,498.67742939918395,219.60148866194353
1.7089489982774407E12,2.5217391304347827,-6.25,3.760869565217391,0.03317594923686376,14.04460537965362,14.077781328890483,498.688680373273,219.6239184884928
1.7089489982969724E12,2.4891304347826084,-6.326086956521739,3.793478260869565,0.028199556851334198,14.05383694813692,14.082036504988254,498.6940173738024,219.67894729124873
1.7089489983165042E12,2.532608695652174,-6.358695652173913,3.858695652173913,0.03959477419790914,14.048788434122615,14.088383208320524,498.69985922573323,219.68543823783855
1.708948998336036E12,2.5543478260869565,-6.369565217391304,3.8152173913043477,0.0446432882122145,14.067828544119424,14.112471832331638,498.7007968069073,219.7290718232479
1.7089489983555676E12,2.543478260869565,-6.3478260869565215,3.8152173913043477,0.04183054468995866,14.058885462151226,14.100716006841184,498.7025277259979,219.73700520241323
1.7089489983750994E12,2.543478260869565,-6.326086956521739,3.782608695652174,0.026180151245612057,14.076987990973949,14.10316814221956,498.6919979681967,219.8226135757701
1.708948998394631E12,2.5217391304347827,-6.293478260869565,3.8369565217391304,0.03216624643400269,14.084488640366631,14.116654886800633,498.6819009401681,219.76506051600703
1.7089489984141628E12,2.5217391304347827,-6.293478260869565,3.75,0.026757124275818382,14.073309787906384,14.100066912182202,498.6841367106601,219.85788105224145
1.7089489984336946E12,2.5,-6.304347826086956,3.760869565217391,0.025242570071526776,14.087012897373784,14.11225546744531,498.6861561162658,219.79124066725262
1.7089489984532263E12,2.510869565217391,-6.33695652173913,3.75,0.0219249751478404,14.08946503275216,14.1113900079,498.69026704910607,219.86812232352761
1.7089489984727583E12,2.510869565217391,-6.380434782608695,3.7717391304347827,0.008149744051664359,14.104682696423852,14.112832440475517,498.6968301173246,219.8306190765642
1.70894899849229E12,2.532608695652174,-6.369565217391304,3.75,0.015289785300467647,14.097759020061376,14.113048805361844,498.6917094816816,219.8896866905316
1.7089489985118218E12,2.5652173913043477,-6.380434782608695,3.75,0.013486744581072877,14.083695302450097,14.09718204703117,498.69747921198365,219.94320093908323
1.7089489985313535E12,2.532608695652174,-6.326086956521739,3.75,0.032743219464209015,14.124155536193317,14.156898755657526,498.69106038702256,219.8619198634529
1.7089489985508853E12,2.510869565217391,-6.315217391304348,3.7717391304347827,0.05034089688550197,14.133819834449273,14.184160731334774,498.6769245477825,219.92019413950376
1.708948998570417E12,2.532608695652174,-6.326086956521739,3.760869565217391,0.03108442200236583,14.167428513458791,14.198512935461157,498.6870215758111,219.85485194383287
1.7089489985899487E12,2.5217391304347827,-6.33695652173913,3.7717391304347827,0.028271678480109988,14.161586661527952,14.189858340008062,498.6953876847491,219.9078613409831
1.7089489986094805E12,2.5,-6.326086956521739,3.75,-0.009520054998404383,14.121054306155957,14.111534251157552,498.6833433727436,219.8169880887256
1.7089489986290122E12,2.543478260869565,-6.33695652173913,3.7282608695652173,-0.025242570071526776,14.12595857691271,14.100716006841184,498.68911310304566,219.87194476985275
1.708948998648544E12,2.5217391304347827,-6.391304347826087,3.7391304347826084,-0.030363205714607922,14.131872550472325,14.101509344757718,498.6834876160011,219.83552334732096
1.7089489986680757E12,2.5,-6.380434782608695,3.760869565217391,-0.03620505764544698,14.145431416682174,14.109226359036727,498.6726693716848,219.8402112531914
1.7089489986876074E12,2.5217391304347827,-6.391304347826087,3.75,-0.043994193553232384,14.152643579559752,14.10864938600652,498.68637248115215,219.82730148164052
1.7089489987071392E12,2.5543478260869565,-6.380434782608695,3.760869565217391,0.08733929244748265,14.277341875713095,14.364681168160578,498.6839203457738,219.81886325107376
1.708948998726671E12,2.5869565217391304,-6.33695652173913,3.760869565217391,0.3787106727016774,14.814720131721513,15.19343080442319,498.68038638596374,219.50369173332356
1.7089489987462026E12,2.5978260869565215,-6.326086956521739,3.467391304347826,-0.020554664201100376,14.177020690085971,14.156466025884871,498.6769245477825,219.6998625635937
1.7089489987657344E12,2.369565217391304,-6.326086956521739,4.043478260869565,-0.031445030146244786,14.247050791627263,14.215605761481019,498.67447241240416,219.6632247761756
1.708948998785266E12,2.543478260869565,-6.413043478260869,3.5760869565217392,-0.0352674764713617,14.24315622367337,14.20788874720201,498.69863315804406,219.6710139120834
1.7089489988047979E12,2.510869565217391,-6.3478260869565215,3.717391304347826,-0.03548384135768907,14.250728994694828,14.21524515333714,498.695099198234,219.60949416273763
1.7089489988243296E12,2.4891304347826084,-6.326086956521739,3.6630434782608696,-0.022646191435598307,14.263278158101816,14.240631966666218,498.69589253615055,219.48912316431085
1.7089489988438613E12,2.5,-6.358695652173913,3.6956521739130435,-0.01824677208027507,14.282318268098626,14.264071496018351,498.69387313054483,219.5277082357059
1.708948998863393E12,2.4891304347826084,-6.391304347826087,3.7391304347826084,-0.009664298255955966,14.298761999459506,14.28909770120355,498.6860118730083,219.42839675288164
1.708948998882925E12,2.510869565217391,-6.413043478260869,3.7065217391304346,0.01190006874800548,14.335255543620056,14.347155612368061,498.67245300679843,219.4776558253355
1.7089489989024568E12,2.543478260869565,-6.4021739130434785,3.7065217391304346,0.045003896356093455,14.364248438387925,14.409252334744018,498.6694238983898,219.35959271902954
1.7089489989219885E12,2.532608695652174,-6.358695652173913,3.608695652173913,0.09419084718118277,14.41538267318996,14.509573520371143,498.67714091266885,219.42356460375365
1.7089489989415203E12,2.5217391304347827,-6.315217391304348,3.684782608695652,0.10594667267163667,14.470050867802009,14.575997540473645,498.66408689786044,219.33038345937533
