Shimmer_6D72_TimestampSync_Unix_CAL,Shimmer_6D72_Accel_LN_X_CAL,Shimmer_6D72_Accel_LN_Y_CAL,Shimmer_6D72_Accel_LN_Z_CAL,Shimmer_6D72_ECG_LA-RA_24BIT_CAL,Shimmer_6D72_ECG_LL-LA_24BIT_CAL,Shimmer_6D72_ECG_LL-RA_24BIT_CAL,Shimmer_6D72_ECG_RESP_24BIT_CAL,Shimmer_6D72_ECG_Vx-RL_24BIT_CAL
ms,m/(s^2),m/(s^2),m/(s^2),mV,mV,mV,mV,mV
1.7089498093620247E12,2.7282608695652173,-5.706521739130435,5.858695652173913,9.667399485993325,-3.316152491110861,6.351246994882464,482.4729976025817,599.2738311617173
1.7089498093815566E12,2.760869565217391,-5.684782608695652,5.804347826086956,9.680597744059295,-3.319974937435978,6.360622806623317,482.4724927511803,599.2745523780051
1.7089498094010889E12,2.7065217391304346,-5.673913043478261,5.8478260869565215,9.663432796410657,-3.3351926011076696,6.328240195302987,482.47350245398314,599.2728935805433
1.708949809420621E12,2.717391304347826,-5.717391304347826,5.8478260869565215,9.675044378643559,-3.3194700860345474,6.3555742926090115,482.4706175888321,599.2610656334241
1.7089498094401533E12,2.7282608695652173,-5.706521739130435,5.880434782608695,9.677135905878057,-3.3362744255393064,6.34086148033875,482.4742957918997,599.2643832283477
1.7089498094596855E12,2.717391304347826,-5.739130434782608,5.858695652173913,9.67966016288521,-3.3242301135337495,6.35543004935146,482.4734303323544,599.2507522405091
1.7089498094792175E12,2.717391304347826,-5.706521739130435,5.891304347826087,9.679948649400313,-3.324446478420077,6.355502170980236,482.47566610284645,599.2591183494471
1.7089498094987498E12,2.7391304347826084,-5.728260869565217,5.913043478260869,9.670861324174563,-3.336418668796858,6.334442655377705,482.47407942701335,599.2483001051307
1.708949809518282E12,2.75,-5.75,5.9021739130434785,9.700575435230189,-3.352862400157738,6.34771303507245,482.4730697242105,599.2543583219478
1.7089498095378142E12,2.717391304347826,-5.717391304347826,5.869565217391304,9.733030168179294,-3.3331731955019466,6.399856972677347,482.4750170081874,599.2737590400886
1.7089498095573464E12,2.75,-5.695652173913043,5.9021739130434785,9.748319953479761,-3.323436775617215,6.424883177862546,482.47480064330114,599.240799455738
1.7089498095768784E12,2.75,-5.695652173913043,5.880434782608695,9.75192603491855,-3.3703158343214783,6.3816102005970725,482.4755939812176,599.2410158206244
1.7089498095964106E12,2.7282608695652173,-5.684782608695652,5.9021739130434785,9.72711619461968,-3.338149587887476,6.388966606732203,482.47321396746804,599.2320727386561
1.7089498096159429E12,2.684782608695652,-5.641304347826087,5.913043478260869,9.69473358329935,-3.334399263191136,6.360334320108214,482.47581034610397,599.2316400088836
1.708949809635475E12,2.717391304347826,-5.663043478260869,5.923913043478261,9.67143829720477,-3.327908316601315,6.343529980603455,482.4763151975054,599.2335872928604
1.7089498096550073E12,2.7065217391304346,-5.673913043478261,5.891304347826087,9.973411556889005,-3.0366811796046704,6.936730377284334,482.47234850792273,599.4426678946814
1.7089498096745393E12,2.6956521739130435,-5.673913043478261,5.913043478260869,10.159701724016873,-2.8647432166031868,7.2949585074136865,482.4755939812176,599.1254769713256
1.7089498096940715E12,2.7282608695652173,-5.663043478260869,5.978260869565217,9.540465419347933,-3.445033841733199,6.095431577614734,482.48064249523196,599.2718117561117
1.7089498097136038E12,2.6739130434782608,-5.663043478260869,5.467391304347826,9.708220327880422,-3.5779540035669806,6.130266324313442,482.47674792727804,599.3101804626203
1.708949809733136E12,2.5978260869565215,-5.543478260869565,6.141304347826087,9.704037273411426,-3.3887789712880814,6.315258302123345,482.4781182382248,599.2675565800139
1.7089498097526682E12,2.6956521739130435,-5.706521739130435,6.076086956521739,9.723365869923338,-3.3253840595941613,6.397981810329177,482.47790187333845,599.2318563737698
1.7089498097722002E12,2.760869565217391,-5.6521739130434785,5.673913043478261,9.734400479126034,-3.331658641297655,6.402741837828379,482.47407942701335,599.2228411701728
1.7089498097917324E12,2.7065217391304346,-5.630434782608695,5.83695652173913,9.759498805940009,-3.3170900722849446,6.442408733655064,482.4727091160666,599.2355345768374
1.7089498098112646E12,2.641304347826087,-5.706521739130435,5.9021739130434785,9.76498004972697,-3.313123382702278,6.451856667024693,482.4724927511803,599.2206053996808
1.7089498098307969E12,2.6739130434782608,-5.771739130434782,5.9021739130434785,9.821090676914535,-3.3327404657292927,6.488350211185242,482.4717715348925,599.2395733880488
1.7089498098503289E12,2.7282608695652173,-5.695652173913043,5.989130434782608,9.849001747250766,-3.333028952244395,6.515972795006371,482.4704733455746,599.2594068359622
1.708949809869861E12,2.760869565217391,-5.673913043478261,5.804347826086956,9.888740764706228,-3.392962025757079,6.495778738949149,482.46910303462784,599.2877506360711
1.7089498098893933E12,2.6956521739130435,-5.6521739130434785,5.75,9.925955525154535,-3.3927456608707507,6.533209864283784,482.4710503186048,599.3119835033398
1.7089498099089255E12,2.6956521739130435,-5.641304347826087,5.826086956521739,9.944562905378689,-3.340168993493199,6.60439391188549,482.4690309129991,599.2953234070925
1.7089498099284578E12,2.652173913043478,-5.663043478260869,5.869565217391304,9.827221015360477,-3.2258562118835705,6.601364803476907,482.4713388051199,599.2585413764169
1.7089498099479897E12,2.684782608695652,-5.728260869565217,5.923913043478261,9.759570927568785,-3.217562224574354,6.542008702994431,482.4711945618623,599.2348854821785
1.708949809967522E12,2.717391304347826,-5.804347826086956,5.891304347826087,9.705984557388373,-3.265883715854134,6.440100841534239,482.47011273743067,599.2227690485441
1.7089498099870542E12,2.760869565217391,-5.9021739130434785,5.967391304347826,9.694661461670574,-3.2758365006251937,6.41882496104538,482.47379094049825,599.213176871917
1.7089498100065864E12,2.717391304347826,-5.880434782608695,5.804347826086956,9.702739084093462,-3.2717255677849737,6.4310135163084885,482.47379094049825,599.2079841146451
1.7089498100261187E12,2.793478260869565,-5.760869565217392,5.684782608695652,9.681318960347053,-3.2683358512325116,6.412983109114541,482.4766758056493,599.2146914261212
1.7089498100456506E12,2.6956521739130435,-5.663043478260869,5.793478260869565,9.693507515610161,-3.2754758924813148,6.418031623128846,482.47595458936155,599.2122392907428
1.7089498100651829E12,2.7065217391304346,-5.717391304347826,5.673913043478261,9.693796002125264,-3.259897620665744,6.43389838145952,482.4755939812176,599.2141865747197
1.708949810084715E12,2.7282608695652173,-5.6521739130434785,5.771739130434782,9.697834813336708,-3.2591042827492096,6.438730530587499,482.4744400351572,599.1634129480616
1.7089498101042473E12,2.7282608695652173,-5.6521739130434785,5.771739130434782,9.694228731897919,-3.2615564181275873,6.432672313770332,482.4737188188695,599.1735099760903
1.7089498101237795E12,2.717391304347826,-5.760869565217392,5.739130434782608,9.683338365952775,-3.247925430288963,6.435412935663812,482.4754497379601,599.1637014345768
1.7089498101433115E12,2.7065217391304346,-5.771739130434782,5.75,9.681174717089501,-3.2388381050632127,6.442336612026288,482.4760988326191,599.1614656640846
1.7089498101628438E12,2.7065217391304346,-5.804347826086956,5.717391304347826,9.671221932318442,-3.2474205788875325,6.4238013534309095,482.4757382244752,599.1618262722286
1.708949810182376E12,2.684782608695652,-5.826086956521739,5.706521739130435,9.665235837130052,-3.238621740176886,6.426614096953165,482.4740073053846,599.1737984626053
1.7089498102019082E12,2.7065217391304346,-5.793478260869565,5.695652173913043,9.657302457964715,-3.228813198663379,6.428489259301336,482.4737188188695,599.1889440046483
1.7089498102214404E12,2.684782608695652,-5.793478260869565,5.706521739130435,9.653407890010822,-3.2418672134717967,6.411540676539025,482.4734303323544,599.1881506667318
1.7089498102409724E12,2.6630434782608696,-5.771739130434782,5.717391304347826,9.6513884844051,-3.236241726427285,6.415146757977815,482.47198789977887,599.1890882479058
1.7089498102605046E12,2.6739130434782608,-5.771739130434782,5.728260869565217,9.657013971449611,-3.231842307071962,6.4251716643776495,482.47198789977887,599.1805778957103
1.7089498102800369E12,2.684782608695652,-5.815217391304348,5.75,9.649369078799378,-3.214028264764342,6.435340814035036,482.4721321430364,599.1752408951809
1.708949810299569E12,2.717391304347826,-5.858695652173913,5.760869565217392,9.65001817345836,-3.224558022565607,6.425460150892753,482.47263699443783,599.16233112363
1.708949810319101E12,2.7065217391304346,-5.869565217391304,5.782608695652174,9.643959956641194,-3.206527615371659,6.437432341269535,482.4739351837558,599.1622590020012
1.7089498103386333E12,2.717391304347826,-5.826086956521739,5.684782608695652,9.651604849291427,-3.2151822108247545,6.436422638466673,482.4736466972407,599.1662978132126
1.7089498103581655E12,2.717391304347826,-5.782608695652174,5.608695652173913,9.657013971449611,-3.1995318173804073,6.457482154069204,482.4739351837558,599.1664420564703
1.7089498103776978E12,2.684782608695652,-5.75,5.619565217391304,9.645762997360588,-3.197512411774685,6.448250585585903,482.47407942701335,599.1631244615465
1.70894981039723E12,2.6739130434782608,-5.75,5.576086956521739,9.652830916980616,-3.1888578163215904,6.463973100659025,482.4754497379601,599.1653602320386
1.708949810416762E12,2.7282608695652173,-5.739130434782608,5.641304347826087,9.70259484083591,-3.1843862753374905,6.51820856549842,482.4730697242105,599.1802172875664
1.7089498104362942E12,2.684782608695652,-5.760869565217392,5.630434782608695,9.711033071402678,-3.2033542637055232,6.507678807697155,482.4744400351572,599.1714184488558
1.7089498104558264E12,2.684782608695652,-5.804347826086956,5.673913043478261,9.705119097843063,-3.182871721133199,6.522247376709864,482.47436791352845,599.1432910136332
1.7089498104753586E12,2.684782608695652,-5.83695652173913,5.673913043478261,9.70071967848774,-3.2086191426061568,6.492100535881583,482.4735745756119,599.1641341643494
1.7089498104948909E12,2.7065217391304346,-5.826086956521739,5.608695652173913,9.658600647282679,-3.180347464126047,6.478253183156632,482.4739351837558,599.1647832590083
1.7089498105144229E12,2.7065217391304346,-5.793478260869565,5.630434782608695,9.636819915392389,-3.1868384107158665,6.449981504676522,482.47234850792273,599.1676681241594
1.708949810533955E12,2.7391304347826084,-5.804347826086956,5.630434782608695,9.664730985728621,-3.1198374175831587,6.544893568145462,482.47234850792273,599.3137865440591
1.7089498105534873E12,2.7065217391304346,-5.804347826086956,5.663043478260869,10.265864761574838,-2.557216591503215,7.708648170071623,482.4694636427717,599.0691499792516
1.7089498105730195E12,2.684782608695652,-5.826086956521739,5.695652173913043,9.539455716545072,-3.1479648528057167,6.391490863739356,482.4757382244752,599.0989362119361
1.7089498105925518E12,2.760869565217391,-5.771739130434782,5.130434782608695,9.66783221576598,-3.5175160786528687,6.150316137113111,482.47407942701335,599.236977009413
1.7089498106120837E12,2.4782608695652173,-5.695652173913043,5.978260869565217,9.668120702281083,-3.2090518723788115,6.459068829902272,482.4691751562566,599.195795559382
1.708949810631616E12,2.793478260869565,-5.923913043478261,5.608695652173913,9.669779499742926,-3.1751547068541903,6.494624792888736,482.46910303462784,599.1839676122627
1.7089498106511482E12,2.6630434782608696,-5.815217391304348,5.619565217391304,9.690189920686475,-3.1672934493176284,6.522896471368846,482.46657877762067,599.1836791257476
1.7089498106706804E12,2.8260869565217392,-5.728260869565217,5.521739130434782,9.694517218413022,-3.1604418945839283,6.534075323829094,482.46816545345376,599.1912518967691
1.7089498106902126E12,2.684782608695652,-5.804347826086956,5.673913043478261,9.709734882084714,-3.1473157581467337,6.56241912393798,482.4668672641358,599.2138259665759
1.7089498107097446E12,2.6956521739130435,-5.880434782608695,5.619565217391304,9.7380786821936,-3.174000760793776,6.564077921399823,482.46484785853005,599.2337315361181
1.7089498107292769E12,2.7391304347826084,-5.8478260869565215,5.695652173913043,9.785823200443174,-3.190372370525882,6.595450829917292,482.4634775475833,599.2680614314153
1.708949810748809E12,2.7717391304347827,-5.858695652173913,5.608695652173913,9.816330649415333,-3.206455493742883,6.60987515567245,482.4617466284927,599.3017422320536
1.7089498107683413E12,2.7065217391304346,-5.83695652173913,5.565217391304348,9.863065464862045,-3.229173806807256,6.633891658054789,482.4612417770913,599.3349181812905
1.7089498107878735E12,2.7065217391304346,-5.782608695652174,5.58695652173913,9.857295734559981,-3.197656655032236,6.659639079527746,482.4609532905762,599.3563383050368
1.7089498108074055E12,2.717391304347826,-5.760869565217392,5.5978260869565215,9.8110657705147,-3.12322713413562,6.68783863637908,482.4623957231517,599.3146520036045
1.7089498108269377E12,2.717391304347826,-5.804347826086956,5.641304347826087,9.718245234280257,-3.058750398010063,6.659494836270194,482.4608090473186,599.2472904023278
1.70894981084647E12,2.7282608695652173,-5.804347826086956,5.641304347826087,9.67381831095437,-3.0866614683462945,6.587156842608076,482.4592944931143,599.2268078597556
1.7089498108660022E12,2.7282608695652173,-5.804347826086956,5.6521739130434785,9.665307958758827,-3.081396589445662,6.5839113693131655,482.45691447936474,599.2139702098334
1.7089498108855342E12,2.7391304347826084,-5.804347826086956,5.58695652173913,9.653191525124495,-3.096397888231027,6.556793636893468,482.45677023610716,599.2155568856665
1.7089498109050664E12,2.75,-5.804347826086956,5.630434782608695,9.652614552094288,-3.087166319747725,6.565448232346563,482.45770781728123,599.2137538449472
1.7089498109245986E12,2.75,-5.826086956521739,5.58695652173913,9.6582400391388,-3.0663952906602976,6.591844748478502,482.45662599284964,599.2179368994161
1.7089498109441309E12,2.6956521739130435,-5.83695652173913,5.5978260869565215,9.662278850350244,-3.0692080341825534,6.593070816167691,482.4556884116755,599.2185138724464
1.708949810963663E12,2.684782608695652,-5.826086956521739,5.576086956521739,9.665019472243724,-3.0623564794488534,6.602662992794871,482.458429033569,599.2007719517675
1.708949810983195E12,2.7282608695652173,-5.782608695652174,5.5978260869565215,9.679515919627658,-3.075843224029926,6.603672695597732,482.46059268243226,599.1951464647229
1.7089498110027273E12,2.7065217391304346,-5.815217391304348,5.630434782608695,9.669418891599047,-3.0503842890720723,6.619034602526975,482.4600878310309,599.1943531268064
1.7089498110222595E12,2.717391304347826,-5.83695652173913,5.673913043478261,9.679227433112555,-3.0575243303208754,6.621703102791679,482.46015995265964,599.1901700723374
1.7089498110417917E12,2.7282608695652173,-5.8478260869565215,5.695652173913043,9.67331345955294,-3.043316369452044,6.629997090100896,482.46044843917474,599.184183977149
1.708949811061324E12,2.7282608695652173,-5.815217391304348,5.6521739130434785,9.67605408144642,-3.056009776116584,6.620044305329836,482.4608090473186,599.194497370064
1.708949811080856E12,2.717391304347826,-5.8478260869565215,5.641304347826087,9.680597744059295,-3.0633661822517144,6.61723156180758,482.46073692568984,599.1949300998366
1.7089498111003882E12,2.7282608695652173,-5.815217391304348,5.630434782608695,9.688459001595856,-3.058678276381287,6.629780725214569,482.4638381557272,599.1904585588526
1.7089498111199204E12,2.7391304347826084,-5.815217391304348,5.608695652173913,9.687232933906667,-3.0456242615728693,6.641608672333798,482.4622514798941,599.1888718830195
1.7089498111394526E12,2.7391304347826084,-5.815217391304348,5.608695652173913,9.698051178223036,-3.0658183176300904,6.6322328605929455,482.4629005745531,599.2019258978279
1.7089498111589849E12,2.760869565217391,-5.804347826086956,5.641304347826087,9.704614246441633,-3.05709160054822,6.647522645893413,482.463261182697,599.1908912886252
1.7089498111785168E12,2.7282608695652173,-5.782608695652174,5.684782608695652,9.702378475949583,-3.0458406264591966,6.656537849490387,482.4614581419776,599.1947137349504
1.708949811198049E12,2.7065217391304346,-5.815217391304348,5.663043478260869,9.716442193560862,-3.0671886285768304,6.649253564984032,482.4608090473186,599.202214384343
1.7089498112175813E12,2.6956521739130435,-5.793478260869565,5.663043478260869,9.726971951362128,-3.0578128168359777,6.66915913452615,482.4628284529243,599.1737984626053
1.7089498112371135E12,2.7282608695652173,-5.815217391304348,5.673913043478261,9.724447694354975,-3.0451194101714387,6.679328284183536,482.4623236015229,599.1766833277563
1.7089498112566458E12,2.7391304347826084,-5.826086956521739,5.684782608695652,9.7267555864758,-3.059111006153942,6.667644580321858,482.46189087175026,599.1673796376443
1.7089498112761777E12,2.7391304347826084,-5.826086956521739,5.695652173913043,9.739521114769115,-3.043676977595922,6.695844137173193,482.462612088038,599.1766112061276
1.70894981129571E12,2.7065217391304346,-5.83695652173913,5.728260869565217,9.75466665681203,-3.0583176682374074,6.6963489885746235,482.4631890610682,599.1743754356355
1.7089498113152422E12,2.7391304347826084,-5.83695652173913,5.641304347826087,9.809406973052857,-3.0428836396793892,6.766523333373468,482.4641266422423,599.2014931680552
1.7089498113347744E12,2.7391304347826084,-5.782608695652174,5.739130434782608,9.823542812292912,-3.0767086835752355,6.746834128717676,482.4625399664092,599.1779093954456
1.7089498113543066E12,2.7282608695652173,-5.760869565217392,5.83695652173913,9.832630137518661,-3.065601952743763,6.767028184774898,482.4623957231517,599.1600232315092
1.7089498113738386E12,2.7391304347826084,-5.75,5.869565217391304,9.831836799602128,-3.0723092642199115,6.759527535382216,482.4617466284927,599.1586529205624
1.7089498113933708E12,2.7391304347826084,-5.739130434782608,5.8478260869565215,9.775581929157012,-3.0654577094862123,6.710124219670799,482.45972722288695,599.1582923124186
1.708949811412903E12,2.7065217391304346,-5.673913043478261,5.782608695652174,9.771543117945567,-3.0588946412676155,6.712648476677952,482.46116965546247,599.1676681241594
1.7089498114324353E12,2.684782608695652,-5.706521739130435,5.804347826086956,9.814527608695938,-2.997374891921865,6.817152716774073,482.46116965546247,599.2996507048191
1.7089498114519673E12,2.684782608695652,-5.771739130434782,5.869565217391304,10.437442116432443,-2.5344261568100643,7.903015959622379,482.4552556819029,599.1276406201888
1.7089498114714995E12,2.7065217391304346,-5.804347826086956,5.858695652173913,9.69300266420873,-3.119765295954382,6.573237368254349,482.4636217908409,599.1331939856045
1.7089498114910317E12,2.684782608695652,-5.695652173913043,5.5,9.79548749869913,-3.421738555638619,6.3737489430605105,482.4581405470539,599.2325775900576
1.708949811510564E12,2.5869565217391304,-5.543478260869565,5.815217391304348,9.81741247384697,-3.1096682679257714,6.707744205921198,482.4602320742884,599.183895490634
1.7089498115300962E12,2.6739130434782608,-5.760869565217392,5.989130434782608,9.831908921230903,-3.0606976819870093,6.771211239243894,482.4596551012582,599.1625474885163
1.7089498115496282E12,2.684782608695652,-5.684782608695652,5.75,9.855997545242017,-3.060048587328027,6.79594895791399,482.4620351150078,599.1608165694257
1.7089498115691604E12,2.8043478260869565,-5.630434782608695,5.641304347826087,9.869700654709417,-3.0428836396793884,6.826817015030029,482.45987146614453,599.157498974502
1.7089498115886926E12,2.7065217391304346,-5.695652173913043,5.826086956521739,9.900063860424027,-3.058750398010064,6.841313462413963,482.45662599284964,599.1756736249536
1.7089498116082249E12,2.7065217391304346,-5.804347826086956,5.815217391304348,9.926460376555966,-3.0653134662286607,6.861146910327305,482.455544168418,599.1758178682111
1.708949811627757E12,2.75,-5.793478260869565,5.978260869565217,9.976801273441467,-3.0771414133478894,6.8996598600935775,482.4559768981906,599.2073350199861
1.708949811647289E12,2.75,-5.760869565217392,5.923913043478261,10.02988279222045,-3.1257513911427734,6.904131401077676,482.45770781728123,599.2332266847166
1.7089498116668213E12,2.7717391304347827,-5.739130434782608,5.869565217391304,10.059452660018524,-3.1421951225036535,6.91725753751487,482.458429033569,599.2609935117953
1.7089498116863535E12,2.7391304347826084,-5.695652173913043,5.891304347826087,10.077915796985126,-3.0922148337620303,6.9857009632230955,482.457130844251,599.2698644721347
1.7089498117058857E12,2.684782608695652,-5.706521739130435,5.934782608695652,10.039547090476406,-3.026512029947285,7.013035060529121,482.45864539845536,599.2448382669495
1.708949811725418E12,2.6739130434782608,-5.663043478260869,5.956521739130435,9.940307729280917,-2.979560849614245,6.960746879666672,482.45720296587984,599.1947137349504
1.70894981174495E12,2.684782608695652,-5.695652173913043,5.9021739130434785,9.882538304631508,-3.004947662943322,6.877590641688186,482.457130844251,599.1753851384384
1.7089498117644822E12,2.7065217391304346,-5.673913043478261,5.9021739130434785,9.861911518801632,-3.037113909377325,6.824797609424307,482.4565538712208,599.1650717455235
1.7089498117840144E12,2.7065217391304346,-5.706521739130435,5.9021739130434785,9.850444179826281,-3.0253580838868714,6.82508609593941,482.4562653847057,599.1622590020012
1.7089498118035466E12,2.7282608695652173,-5.695652173913043,5.9021739130434785,9.861839397172856,-3.031632665590365,6.830206731582491,482.4590060065992,599.1592298935926
1.7089498118230789E12,2.684782608695652,-5.630434782608695,5.9021739130434785,9.85527632895426,-3.005308271087202,6.849968057867057,482.46116965546247,599.162619610145
1.7089498118426108E12,2.6739130434782608,-5.663043478260869,5.804347826086956,9.866310938156955,-3.0401430177859083,6.826167920371047,482.45915024985675,599.171346327227
1.708949811862143E12,2.6739130434782608,-5.663043478260869,5.869565217391304,9.884197102093351,-3.029901746499746,6.854295355593605,482.46427088549984,599.1632687048041
1.7089498118816753E12,2.6739130434782608,-5.684782608695652,5.945652173913043,9.87770615550353,-2.992254256278783,6.885451899224747,482.4620351150078,599.1577153393883
1.7089498119012075E12,2.684782608695652,-5.717391304347826,5.934782608695652,9.883620129063145,-3.0153331774870367,6.868286951576108,482.46246784478046,599.1541092579496
1.7089498119207397E12,2.684782608695652,-5.760869565217392,5.891304347826087,9.884774075123557,-3.0263677866897325,6.858406288433825,482.4679490885674,599.1423534324591
1.7089498119402717E12,2.717391304347826,-5.739130434782608,5.9021739130434785,9.886360750956625,-2.9983124730959494,6.888048277860675,482.47083395371845,599.1316073097715
1.708949811959804E12,2.7065217391304346,-5.728260869565217,5.891304347826087,9.88318739929049,-3.0177131912366377,6.865474208053852,482.46838181834005,599.1342758100362
1.7089498119793362E12,2.6956521739130435,-5.706521739130435,5.9021739130434785,9.891553508228483,-3.036681179604672,6.854872328623811,482.465496953189,599.1184090517055
1.7089498119988684E12,2.6739130434782608,-5.673913043478261,5.869565217391304,9.868041857247574,-3.010068298586404,6.85797355866117,482.47206002140763,599.1192745112509
1.7089498120184004E12,2.6956521739130435,-5.6521739130434785,5.880434782608695,9.893933521978084,-3.0462012346030765,6.847732287375008,482.4711945618623,599.1087447534496
1.7089498120379326E12,2.6956521739130435,-5.6521739130434785,5.891304347826087,9.883331642548042,-3.029685381613419,6.853646260934623,482.47141092674866,599.1166060109862
1.7089498120574648E12,2.684782608695652,-5.673913043478261,5.880434782608695,9.873811587549637,-3.013097406994987,6.86071418055465,482.47508912981624,599.1064368613288
1.708949812076997E12,2.6739130434782608,-5.673913043478261,5.869565217391304,9.881528601828647,-3.0157659072596914,6.865762694568955,482.478695211255,599.1000901579965
1.7089498120965293E12,2.7065217391304346,-5.684782608695652,5.8478260869565215,9.884485588608454,-3.0089143525259905,6.875571236082464,482.4766036840205,599.0954743737549
1.7089498121160613E12,2.684782608695652,-5.695652173913043,5.858695652173913,9.883836493949472,-3.0260071785458535,6.8578293154036185,482.4760988326191,599.0954743737549
1.7089498121355935E12,2.684782608695652,-5.663043478260869,5.869565217391304,9.883043156032938,-3.0048755413145463,6.878167614718392,482.4766758056493,599.0890555487938
1.7089498121551257E12,2.7065217391304346,-5.673913043478261,5.858695652173913,9.877634033874754,-3.0071113118065966,6.8705227220681575,482.4819406845499,599.0872525080744
1.708949812174658E12,2.717391304347826,-5.706521739130435,5.83695652173913,9.8840528588358,-3.0051640278296494,6.87888883100615,482.48158007640603,599.0936713330354
1.7089498121941902E12,2.684782608695652,-5.706521739130435,5.826086956521739,9.90583359072609,-2.9837439040832416,6.922089686642848,482.47862308962624,599.1005228877691
1.7089498122137222E12,2.6739130434782608,-5.695652173913043,5.815217391304348,9.946005337954205,-3.0020627977922913,6.943942540161913,482.47804611659603,599.0922289004599
1.7089498122332544E12,2.6739130434782608,-5.673913043478261,5.804347826086956,9.940379850909693,-2.9810032821897607,6.959376568719932,482.4714830483774,599.0738378851221
1.7089498122527866E12,2.7065217391304346,-5.6521739130434785,5.793478260869565,9.936124674811921,-3.0092028390410954,6.926921835770826,482.46852606159763,599.0820597508025
1.7089498122723188E12,2.6956521739130435,-5.673913043478261,5.771739130434782,9.877489790617203,-2.982950566166706,6.894539224450496,482.4690309129991,599.0858821971276
1.708949812291851E12,2.6956521739130435,-5.673913043478261,5.771739130434782,9.85852180224917,-2.9797050928717956,6.878816709377374,482.47198789977887,599.0786700342501
1.708949812311383E12,2.7065217391304346,-5.706521739130435,5.826086956521739,9.939009539962953,-2.9168871542080828,7.02212238575487,482.470978196976,599.2706578100513
1.7089498123309153E12,2.6956521739130435,-5.782608695652174,5.826086956521739,10.460809524155799,-2.318566121884123,8.142243402271676,482.4727091160666,599.1265587957572
1.7089498123504475E12,2.6739130434782608,-5.869565217391304,5.804347826086956,9.720192518257203,-3.1113270653876146,6.608865452869589,482.4741515486421,599.0976380226181
1.7089498123699797E12,2.7065217391304346,-5.83695652173913,5.413043478260869,9.872585519860449,-3.293289934788934,6.579295585071515,482.46996849417314,599.1726445165449
1.708949812389512E12,2.684782608695652,-5.663043478260869,5.760869565217392,9.869772776338193,-3.0487254916102273,6.821047284727966,482.46968000765804,599.1193466328796
1.708949812409044E12,2.75,-5.8478260869565215,5.782608695652174,9.874604925466171,-2.9693916999568577,6.905213225509313,482.4685981832264,599.0972052928455
1.7089498124285762E12,2.608695652173913,-5.83695652173913,5.782608695652174,9.884701953494782,-2.961097712647642,6.92360424084714,482.47011273743067,599.091868292316
1.7089498124481084E12,2.782608695652174,-5.706521739130435,5.489130434782608,9.898260819704632,-2.9522988739369964,6.945961945767635,482.4663624127343,599.0898488867103
1.7089498124676406E12,2.6630434782608696,-5.706521739130435,5.695652173913043,9.915353645724494,-2.9430673054536953,6.972286340270799,482.4650642234164,599.1026865366324
1.7089498124871729E12,2.619565217391304,-5.826086956521739,5.641304347826087,9.940163486023366,-2.9515055360204627,6.988657950002903,482.46729999390845,599.1156684298121
1.7089498125067048E12,2.7065217391304346,-5.83695652173913,5.684782608695652,9.976152178782485,-2.969608064843185,7.0065441139393,482.46852606159763,599.130164877196
1.708949812526237E12,2.717391304347826,-5.826086956521739,5.684782608695652,10.029954913849226,-3.011078001389266,7.01887691245996,482.4608090473186,599.1766833277563
1.7089498125457693E12,2.7391304347826084,-5.804347826086956,5.58695652173913,10.052384740398496,-3.0222568538495134,7.030127886548983,482.4617466284927,599.1873573288152
1.7089498125653015E12,2.7065217391304346,-5.804347826086956,5.543478260869565,10.062553890055883,-3.018578650781948,7.0439752392739345,482.4597993445158,599.2060368306682
1.7089498125848335E12,2.684782608695652,-5.771739130434782,5.608695652173913,10.011491776882622,-2.9177526137533913,7.09373916312923,482.45864539845536,599.1769718142715
1.7089498126043657E12,2.6630434782608696,-5.804347826086956,5.641304347826087,9.931148282426392,-2.8716668929656617,7.05948138946073,482.46275633129557,599.1518734874575
1.708949812623898E12,2.6956521739130435,-5.891304347826087,5.619565217391304,9.875686749897808,-2.881547556107945,6.994139193789863,482.46311693943943,599.1219430115156
1.7089498126434302E12,2.7065217391304346,-5.880434782608695,5.673913043478261,9.855709058726914,-2.8915724625077797,6.964136596219134,482.4647036152725,599.1149472135243
1.7089498126629624E12,2.6630434782608696,-5.880434782608695,5.5978260869565215,9.850876909598936,-2.8875336512963354,6.963343258302601,482.4621072366366,599.1154520649258
1.7089498126824944E12,2.7065217391304346,-5.858695652173913,5.630434782608695,9.855132085696708,-2.9016694905363902,6.9534625951603175,482.46600180459046,599.1124229565171
1.7089498127020266E12,2.7282608695652173,-5.83695652173913,5.576086956521739,9.861623032286529,-2.8809705830777386,6.98065244920879,482.4647036152725,599.106653226215
1.7089498127215588E12,2.6739130434782608,-5.83695652173913,5.554347826086956,9.868835195164108,-2.881547556107945,6.987287639056163,482.46398239898474,599.0984313605346
1.708949812741091E12,2.6739130434782608,-5.815217391304348,5.576086956521739,9.872946128004328,-2.879456028873447,6.993490099130881,482.46585756133294,599.1047059422382
1.7089498127606233E12,2.7391304347826084,-5.793478260869565,5.608695652173913,9.869051560050435,-2.8651759463758397,7.003875613674595,482.46614604784804,599.1165338893574
1.7089498127801553E12,2.7065217391304346,-5.782608695652174,5.608695652173913,9.882105574858853,-2.861930473080929,7.020175101777924,482.4662181694768,599.0915076841721
1.7089498127996875E12,2.7065217391304346,-5.826086956521739,5.619565217391304,9.879148588079046,-2.8648153382319608,7.014333249847085,482.4665066559919,599.1102593076539
1.7089498128192197E12,2.717391304347826,-5.8478260869565215,5.6521739130434785,9.871215208913709,-2.8670511087240103,7.004164100189699,482.46427088549984,599.1049944287532
1.708949812838752E12,2.717391304347826,-5.858695652173913,5.641304347826087,9.885567413040091,-2.863733513800324,7.021833899239767,482.4623957231517,599.1052107936396
1.7089498128582842E12,2.7065217391304346,-5.858695652173913,5.608695652173913,9.885855899555194,-2.863733513800324,7.02212238575487,482.4614581419776,599.0978543875044
1.7089498128778162E12,2.717391304347826,-5.826086956521739,5.619565217391304,9.884341345350903,-2.858901364672346,7.025439980678557,482.4613860203488,599.0967725630728
1.7089498128973484E12,2.684782608695652,-5.815217391304348,5.608695652173913,9.879292831336597,-2.847578268954547,7.03171456238205,482.4622514798941,599.0998016714814
1.7089498129168806E12,2.7065217391304346,-5.815217391304348,5.58695652173913,9.88902925122133,-2.8551510399760067,7.033878211245324,482.46311693943943,599.096700441444
1.7089498129364128E12,2.6956521739130435,-5.815217391304348,5.576086956521739,9.89898203599239,-2.8510401071357867,7.047941928856603,482.4628284529243,599.1115574969718
1.708949812955945E12,2.7065217391304346,-5.83695652173913,5.58695652173913,9.892563211031344,-2.847866755469652,7.044696455561692,482.4615302636064,599.1016768338295
1.708949812975477E12,2.717391304347826,-5.804347826086956,5.5978260869565215,9.897972333189529,-2.842385511682692,7.055586821506837,482.4628284529243,599.1113411320855
1.7089498129950093E12,2.6956521739130435,-5.815217391304348,5.576086956521739,9.901650536257094,-2.8363994164943005,7.065251119762793,482.46246784478046,599.1052829152684
1.7089498130145415E12,2.7065217391304346,-5.826086956521739,5.576086956521739,9.90821360447569,-2.841664295394933,7.066549309080758,482.46217935826536,599.107013834359
1.7089498130340737E12,2.6739130434782608,-5.826086956521739,5.5978260869565215,9.91506515920939,-2.832793335055511,7.08227182415388,482.4682375750825,599.1019653203447
1.708949813053606E12,2.684782608695652,-5.8478260869565215,5.58695652173913,9.914848794323063,-2.8261581452081384,7.088690649114925,482.46672302087825,599.096411954929
1.708949813073138E12,2.7065217391304346,-5.826086956521739,5.58695652173913,9.948457473332581,-2.8059640891509163,7.142493384181665,482.46874242648397,599.1225921061746
1.7089498130926702E12,2.6739130434782608,-5.83695652173913,5.5978260869565215,9.995625018551948,-2.8399333763043133,7.155691642247635,482.46643453436315,599.1173272272739
1.7089498131122024E12,2.684782608695652,-5.815217391304348,5.608695652173913,9.998942613475634,-2.834524254146129,7.164418359329505,482.46939152114294,599.092517386975
1.7089498131317346E12,2.6956521739130435,-5.826086956521739,5.5978260869565215,9.991369842454176,-2.8529873911127313,7.138382451341445,482.4676606020523,599.0991525768223
1.7089498131512666E12,2.6956521739130435,-5.804347826086956,5.543478260869565,9.939874999508262,-2.8134647385435985,7.126410260964664,482.46838181834005,599.0935270897779
1.7089498131707988E12,2.684782608695652,-5.804347826086956,5.58695652173913,9.923431268147382,-2.82356176657221,7.0998695015751725,482.4709060753472,599.1055714017834
1.708949813190331E12,2.7065217391304346,-5.826086956521739,5.608695652173913,9.900496590196681,-2.7489158807892666,7.151580709407415,482.47227638629397,599.1936319105187
1.7089498132098633E12,2.684782608695652,-5.826086956521739,5.630434782608695,10.676958045596844,-2.302482998667122,8.374475046929723,482.4647036152725,599.1476904329885
1.7089498132293955E12,2.641304347826087,-5.858695652173913,5.6521739130434785,9.921339740912885,-2.685016117693916,7.2363236232189685,482.4706897104609,598.922021856549
1.7089498132489275E12,2.7282608695652173,-5.804347826086956,5.184782608695652,9.96425211003448,-3.065890439258866,6.898361670775613,482.4663624127343,599.16233112363
1.7089498132684597E12,2.619565217391304,-5.684782608695652,6.021739130434782,9.956246609240367,-2.8573868104680553,7.098859798772311,482.4657854397041,599.1402619052246
1.708949813287992E12,2.782608695652174,-5.934782608695652,5.478260869565217,9.968579407761027,-2.8319999971389764,7.13657941062205,482.46852606159763,599.1293715392794
1.7089498133075242E12,2.6630434782608696,-5.891304347826087,5.663043478260869,9.968723651018578,-2.815988995550751,7.152734655467827,482.466795142507,599.1386752293915
1.7089498133270564E12,2.717391304347826,-5.75,5.532608695652174,9.996418356468482,-2.8151956576342174,7.181222698834264,482.4665066559919,599.1317515530291
1.7089498133465884E12,2.6956521739130435,-5.826086956521739,5.565217391304348,10.026348832410436,-2.818801739073008,7.207547093337428,482.4629005745531,599.1618262722286
1.7089498133661206E12,2.630434782608696,-5.858695652173913,5.5978260869565215,10.054476267632994,-2.8395727681604352,7.214903499472559,482.46044843917474,599.1816597201419
1.7089498133856528E12,2.684782608695652,-5.8478260869565215,5.619565217391304,10.094936501376212,-2.856521350922746,7.238415150453466,482.4633333043258,599.2110853446824
1.708949813405185E12,2.7282608695652173,-5.869565217391304,5.619565217391304,10.138497965156791,-2.869431122473613,7.269066842683178,482.4612417770913,599.2514734567968
1.7089498134247173E12,2.717391304347826,-5.891304347826087,5.554347826086956,10.185088537345951,-2.9160216946627733,7.269066842683178,482.45951085800067,599.3109738005369
1.7089498134442493E12,2.6739130434782608,-5.869565217391304,5.543478260869565,10.194969200488234,-2.898928868642911,7.296040331845323,482.45806842542515,599.3070071109543
1.7089498134637815E12,2.6630434782608696,-5.826086956521739,5.58695652173913,10.153571385570931,-2.822119333996694,7.331452051574237,482.45806842542515,599.2704414451649
1.7089498134833137E12,2.684782608695652,-5.804347826086956,5.619565217391304,10.049283510361137,-2.734780041549211,7.314503468811926,482.46001570940206,599.1918288697993
1.708949813502846E12,2.6956521739130435,-5.782608695652174,5.619565217391304,10.016396047639377,-2.75605592203807,7.260340125601307,482.46015995265964,599.1447334462086
1.7089498135223782E12,2.717391304347826,-5.815217391304348,5.630434782608695,10.0026208165432,-2.7624026253703384,7.240218191172861,482.461962993379,599.1313909448852
1.7089498135419102E12,2.684782608695652,-5.826086956521739,5.565217391304348,10.007452965671177,-2.777331802526927,7.230121163144251,482.4609532905762,599.1239624171212
1.7089498135614424E12,2.6739130434782608,-5.826086956521739,5.608695652173913,9.999663829763392,-2.7603832197646163,7.239280609998776,482.46275633129557,599.1248278766666
1.7089498135809746E12,2.7282608695652173,-5.8478260869565215,5.543478260869565,10.006082654724437,-2.755406827379086,7.2506758273453515,482.4618187501215,599.1386752293915
1.7089498136005068E12,2.641304347826087,-5.8478260869565215,5.619565217391304,10.004207492376267,-2.744732826320269,7.259474666055998,482.46217935826536,599.1228805926896
1.708949813620039E12,2.6739130434782608,-5.815217391304348,5.576086956521739,10.023391845630629,-2.7569213815833793,7.2664704640472495,482.46088116894737,599.1232412008335
1.708949813639571E12,2.7065217391304346,-5.815217391304348,5.576086956521739,10.02166092654001,-2.7458146507519077,7.275846275788102,482.46102541220495,599.1144423621229
1.7089498136591033E12,2.7065217391304346,-5.826086956521739,5.641304347826087,10.01048207407976,-2.7360782308671743,7.274403843212586,482.45893388497046,599.1133605376913
1.7089498136786355E12,2.7282608695652173,-5.83695652173913,5.608695652173913,10.018126966729996,-2.7207884455667086,7.2973385211632875,482.46044843917474,599.1067974694727
1.7089498136981677E12,2.684782608695652,-5.83695652173913,5.6521739130434785,10.022382142827768,-2.7612486793099267,7.261133463517841,482.46484785853005,599.1165338893574
1.7089498137176997E12,2.7065217391304346,-5.826086956521739,5.619565217391304,10.027502778470849,-2.745309799350477,7.282192979120372,482.4592944931143,599.0987198470498
1.708949813737232E12,2.7065217391304346,-5.826086956521739,5.641304347826087,10.03175795456862,-2.721653905112017,7.310104049456603,482.45864539845536,599.0961955900426
1.7089498137567642E12,2.717391304347826,-5.826086956521739,5.630434782608695,10.032046441083724,-2.7360061092384003,7.296040331845323,482.45741933076613,599.1018210770872
1.7089498137762964E12,2.7391304347826084,-5.815217391304348,5.663043478260869,10.036373738810271,-2.7325442710571624,7.303829467753109,482.455544168418,599.0902094948542
1.7089498137958286E12,2.7282608695652173,-5.815217391304348,5.608695652173913,10.047841077785622,-2.745670407494356,7.302170670291265,482.4552556819029,599.0951858872397
1.7089498138153606E12,2.717391304347826,-5.826086956521739,5.619565217391304,10.051447159224411,-2.7359339876096236,7.315513171614787,482.4533805195547,599.0834300617493
1.7089498138348928E12,2.684782608695652,-5.8478260869565215,5.630434782608695,10.058587200473214,-2.732977000829816,7.325610199643398,482.45035141114613,599.0895604001952
1.708949813854425E12,2.6739130434782608,-5.782608695652174,5.5978260869565215,10.056135065094837,-2.738241879730449,7.3178931853643885,482.4518659653504,599.0915076841721
1.7089498138739573E12,2.6739130434782608,-5.793478260869565,5.532608695652174,10.061255700737918,-2.7308133519665425,7.330442348771376,482.4546787088727,599.0858821971276
1.7089498138934895E12,2.684782608695652,-5.83695652173913,5.543478260869565,10.058370835586887,-2.7360061092383994,7.3223647263484875,482.45828479031144,599.0879016027334
1.7089498139130215E12,2.684782608695652,-5.815217391304348,5.543478260869565,10.053827172974012,-2.7263418109824435,7.3274853619915685,482.45770781728123,599.0904979813693
1.7089498139325537E12,2.641304347826087,-5.8478260869565215,5.5978260869565215,10.054836875776873,-2.726125446096116,7.328711429680757,482.4579241821676,599.0965561981865
1.708949813952086E12,2.7065217391304346,-5.869565217391304,5.576086956521739,10.067458160812636,-2.715523566666075,7.351934594146561,482.4608090473186,599.0990804551936
1.7089498139716182E12,2.6630434782608696,-5.83695652173913,5.608695652173913,10.119674220046308,-2.721437540225689,7.398236679820619,482.4636217908409,599.1220151331444
1.7089498139911504E12,2.684782608695652,-5.8478260869565215,5.619565217391304,10.12616516663613,-2.7206442023091553,7.405520964326974,482.4676606020523,599.1016768338295
1.7089498140106824E12,2.6739130434782608,-5.891304347826087,5.554347826086956,10.130203977847573,-2.7321836629132816,7.398020314934292,482.470329102317,599.0931664816341
1.7089498140302146E12,2.641304347826087,-5.8478260869565215,5.565217391304348,10.113327516714039,-2.715235080150971,7.398092436563068,482.47083395371845,599.0793191289091
1.7089498140497468E12,2.641304347826087,-5.804347826086956,5.510869565217392,10.06139994399547,-2.722086634884672,7.339313309110798,482.4760267109903,599.0775882098185
1.708949814069279E12,2.6739130434782608,-5.804347826086956,5.510869565217392,10.033921603431894,-2.6855930907241223,7.348328512707772,482.4781182382248,599.0653275329265
1.7089498140888113E12,2.630434782608696,-5.83695652173913,5.532608695652174,10.071713336910408,-2.642175870201096,7.429537466709312,482.4802818870881,599.1973101135862
1.7089498141083433E12,2.5978260869565215,-5.826086956521739,5.565217391304348,10.695132696048343,-2.2724804010963915,8.422652294951952,482.4791279410277,599.0428255847485
1.7089498141278755E12,2.608695652173913,-5.869565217391304,5.673913043478261,9.913262118489996,-2.739251582533311,7.174010535956685,482.48417645504196,599.0273915561904
1.7089498141474077E12,2.608695652173913,-5.891304347826087,5.25,10.048706537330931,-2.950423711588826,7.098282825742105,482.4867728336779,599.1440122299209
1.70894981416694E12,2.5217391304347827,-5.706521739130435,5.521739130434782,10.05094230782298,-2.7568492599546035,7.294093047868377,482.4890807257987,599.1145866053804
1.7089498141864722E12,2.641304347826087,-5.869565217391304,5.771739130434782,10.065222390320587,-2.7150908368934203,7.3501315534271665,482.49045103674547,599.0815548994011
1.7089498142060042E12,2.532608695652174,-5.858695652173913,5.554347826086956,10.076545486038386,-2.703623497918069,7.372921988120317,482.4879267797383,599.0832858184917
1.7089498142255364E12,2.717391304347826,-5.793478260869565,5.326086956521739,10.079790959333296,-2.680977306482471,7.3988136528508255,482.4889364825412,599.0840791564083
1.7089498142450686E12,2.5869565217391304,-5.83695652173913,5.532608695652174,10.110875381335662,-2.687396131443516,7.423479249892146,482.4861237390189,599.0923010220887
1.7089498142646008E12,2.608695652173913,-5.934782608695652,5.467391304347826,10.129194275044712,-2.688910685647807,7.4402835893969055,482.48569100924624,599.094753157467
1.7089498142841328E12,2.6739130434782608,-5.956521739130435,5.608695652173913,10.181770942422265,-2.7160284180675056,7.465742524354759,482.4896576988289,599.1252606064393
1.708949814303665E12,2.7065217391304346,-5.9021739130434785,5.543478260869565,10.209465647872168,-2.747184961698647,7.462280686173521,482.49239832072243,599.1560565419265
1.7089498143231973E12,2.6739130434782608,-5.869565217391304,5.478260869565217,10.260744125931755,-2.7839669923742996,7.476777133557455,482.4939128749267,599.1975264784726
1.7089498143427295E12,2.6739130434782608,-5.826086956521739,5.467391304347826,10.253099233281521,-2.7188411615897605,7.53425807169176,482.49723046985036,599.1923337212007
1.7089498143622617E12,2.641304347826087,-5.793478260869565,5.565217391304348,10.210691715561357,-2.655878979668496,7.5548127358928605,482.4968698617065,599.1716348137421
1.7089498143817937E12,2.6739130434782608,-5.782608695652174,5.554347826086956,10.10799051618463,-2.614409043122416,7.493581473062214,482.49607652378995,599.1161732812135
1.708949814401326E12,2.684782608695652,-5.804347826086956,5.554347826086956,10.052240497140945,-2.6115962996001603,7.440644197540784,482.49795168613815,599.0846561294385
1.7089498144208582E12,2.684782608695652,-5.83695652173913,5.608695652173913,10.031397346424741,-2.6465031679276434,7.384894178497098,482.4968698617065,599.0857379538701
1.7089498144403904E12,2.619565217391304,-5.869565217391304,5.608695652173913,10.023175480744301,-2.652200776600931,7.370974704143371,482.49751895636547,599.0775882098185
1.7089498144599226E12,2.7065217391304346,-5.880434782608695,5.5,10.021949413055113,-2.637055234558015,7.384894178497098,482.4971583482216,599.0718906011451
1.7089498144794546E12,2.619565217391304,-5.815217391304348,5.5978260869565215,10.025916102637781,-2.642824964860078,7.383091137777703,482.49470621284325,599.0742706148948
1.7089498144989868E12,2.652173913043478,-5.8478260869565215,5.5,10.032190684341275,-2.6410219241406834,7.391168760200592,482.4950668209871,599.0655438978129
1.708949814518519E12,2.641304347826087,-5.782608695652174,5.565217391304348,10.029666427334123,-2.62977095005166,7.399895477282462,482.49492257772954,599.0614329649727
1.7089498145380513E12,2.652173913043478,-5.771739130434782,5.663043478260869,10.042143469112334,-2.6434740595190602,7.398669409593274,482.4923261990936,599.0511195720577
1.7089498145575835E12,2.652173913043478,-5.793478260869565,5.554347826086956,10.039042239074975,-2.6415988971708897,7.3974433419040855,482.4876382932232,599.048451071793
1.7089498145771155E12,2.652173913043478,-5.804347826086956,5.565217391304348,10.046038037066227,-2.6457098300111097,7.400328207055117,482.4867007120491,599.0363346381587
1.7089498145966477E12,2.6739130434782608,-5.771739130434782,5.510869565217392,10.026781562183091,-2.641815262057217,7.384966300125874,482.48482554970093,599.028833988766
1.70894981461618E12,2.6739130434782608,-5.793478260869565,5.5,10.029305819190244,-2.658619601561976,7.3706862176282675,482.48547464435995,599.0156357307001
1.7089498146357122E12,2.641304347826087,-5.815217391304348,5.532608695652174,10.033921603431894,-2.659052331334631,7.374869272097263,482.4817243196636,599.0190975688813
1.7089498146552444E12,2.6956521739130435,-5.8478260869565215,5.532608695652174,10.031685832939845,-2.6537153308052224,7.377970502134622,482.47732490030825,599.0231363800928
1.7089498146747764E12,2.6956521739130435,-5.83695652173913,5.554347826086956,10.030171278735553,-2.6444837623219213,7.385687516413632,482.4768921705356,599.0068368919893
1.7089498146943086E12,2.7065217391304346,-5.815217391304348,5.543478260869565,10.042359833998662,-2.6680675349316045,7.374292299067057,482.4730697242105,599.0012835265736
1.7089498147138408E12,2.7065217391304346,-5.815217391304348,5.543478260869565,10.043946509831729,-2.6609274936828013,7.3830190161489275,482.4714830483774,599.0035192970657
1.708949814733373E12,2.717391304347826,-5.83695652173913,5.58695652173913,10.048057442671949,-2.674414238263874,7.373643204408075,482.4729976025817,599.0056829459289
1.7089498147529053E12,2.7282608695652173,-5.83695652173913,5.576086956521739,10.049139267103586,-2.6816985227702297,7.367440744333356,482.47169941326376,598.9929895392644
1.7089498147724373E12,2.7282608695652173,-5.826086956521739,5.58695652173913,10.060101754677506,-2.692300402200271,7.367801352477235,482.4760267109903,598.9967398639608
1.7089498147919695E12,2.7391304347826084,-5.826086956521739,5.565217391304348,10.050870186194205,-2.678885779247973,7.371984406946232,482.47436791352845,598.996018647673
1.7089498148115017E12,2.7065217391304346,-5.826086956521739,5.565217391304348,10.065150268691811,-2.6890549289053594,7.376095339786452,482.46982425091556,598.9963792558169
1.708949814831034E12,2.7282608695652173,-5.83695652173913,5.576086956521739,10.069333323160807,-2.6835015634896235,7.385831759671183,482.4709060753472,598.9880131468789
1.708949814850566E12,2.7065217391304346,-5.869565217391304,5.576086956521739,10.087075243839651,-2.6849439960651393,7.402131247774512,482.46867030485515,598.9969562288471
1.7089498148700981E12,2.717391304347826,-5.858695652173913,5.576086956521739,10.141310708679047,-2.711124147310753,7.430186561368294,482.46780484530984,599.0146981495259
1.7089498148896304E12,2.7282608695652173,-5.858695652173913,5.58695652173913,10.129699126446143,-2.6954737538664038,7.434225372579739,482.4680212101962,598.9836137275236
1.7089498149091626E12,2.717391304347826,-5.858695652173913,5.565217391304348,10.135468856748206,-2.718696918332209,7.416771938415997,482.4679490885674,598.992773174378
1.7089498149286948E12,2.7065217391304346,-5.8478260869565215,5.554347826086956,10.094071041830903,-2.697060429699472,7.397010612131431,482.46816545345376,598.9870755657048
1.7089498149482268E12,2.717391304347826,-5.815217391304348,5.532608695652174,10.068900593388152,-2.72006722927895,7.348833364109202,482.470978196976,598.9880131468789
1.708949814967759E12,2.717391304347826,-5.826086956521739,5.576086956521739,10.048778658959707,-2.660350520652595,7.388428138307112,482.47011273743067,599.0576826402763
1.7089498149872913E12,2.717391304347826,-5.804347826086956,5.565217391304348,10.415445019655827,-2.446077161559721,7.969367858096106,482.46657877762067,599.2246442108923
1.7089498150068235E12,2.6956521739130435,-5.83695652173913,5.630434782608695,10.10575474569258,-2.4369898363339706,7.66876490935861,482.4719157781501,598.7755428285054
1.7089498150263557E12,2.7065217391304346,-5.858695652173913,5.423913043478261,10.055125362291976,-3.0533412758518788,7.0017840864400975,482.470329102317,599.0165733118741
1.7089498150458877E12,2.891304347826087,-5.782608695652174,5.5,10.110875381335662,-2.7994731425610944,7.311402238774567,482.4697521292868,599.018881203995
1.70894981506542E12,2.5543478260869565,-5.880434782608695,5.9021739130434785,10.119962706561411,-2.752882570371934,7.367080136189477,482.4670836290221,598.9928452960069
1.7089498150849521E12,2.6956521739130435,-5.978260869565217,5.630434782608695,10.125948801749802,-2.7380255148441206,7.387923286905681,482.46939152114294,598.9660160501023
1.7089498151044844E12,2.8043478260869565,-5.782608695652174,5.380434782608695,10.149604695988263,-2.7387467311318803,7.410857964856382,482.46953576440046,598.9774112674488
1.7089498151240166E12,2.7065217391304346,-5.728260869565217,5.521739130434782,10.15342714231338,-2.726558175868772,7.426868966444608,482.4676606020523,598.9687566719957
1.7089498151435486E12,2.652173913043478,-5.9021739130434785,5.532608695652174,10.184511564315745,-2.7414152313965836,7.443096332919161,482.46845393996887,598.9989035128241
1.7089498151630808E12,2.7065217391304346,-5.880434782608695,5.58695652173913,10.222736027566913,-2.7627632335142174,7.459972794052696,482.46693938576453,599.0118854060037
1.708949815182613E12,2.760869565217391,-5.8478260869565215,5.630434782608695,10.283895168768785,-2.7989682911596656,7.484926877609119,482.46340542595453,599.0983592389059
1.7089498152021453E12,2.7391304347826084,-5.923913043478261,5.576086956521739,10.316926874748097,-2.831495145737547,7.48543172901055,482.4629726961819,599.1384588645052
1.7089498152216775E12,2.7282608695652173,-5.880434782608695,5.510869565217392,10.336760322661439,-2.826013901950586,7.510746420710853,482.4622514798941,599.1763948412413
1.7089498152412095E12,2.7065217391304346,-5.804347826086956,5.532608695652174,10.30863288743888,-2.7623305037415635,7.546302383697317,482.4643430071286,599.1469692167008
1.7089498152607417E12,2.717391304347826,-5.815217391304348,5.543478260869565,10.24523797574496,-2.6852324825802416,7.560005493164718,482.46304481781067,599.084511886181
1.708949815280274E12,2.75,-5.8478260869565215,5.576086956521739,10.156456250721963,-2.6683560214467086,7.488100229275254,482.46398239898474,599.0385704086507
1.7089498152998062E12,2.7282608695652173,-5.83695652173913,5.58695652173913,10.135468856748206,-2.69605072689661,7.439418129851596,482.4640545206135,599.0154193658137
1.7089498153193381E12,2.717391304347826,-5.858695652173913,5.565217391304348,10.143907087314975,-2.7290103112471487,7.414896776067827,482.4628284529243,599.024650934297
1.7089498153388704E12,2.6956521739130435,-5.83695652173913,5.576086956521739,10.14246465473946,-2.7136484043179054,7.428816250421554,482.46275633129557,599.002148986119
1.7089498153584026E12,2.7717391304347827,-5.8478260869565215,5.5,10.142031924966805,-2.7010271192821413,7.441004805684663,482.465496953189,599.0067647703606
1.7089498153779348E12,2.6956521739130435,-5.8478260869565215,5.543478260869565,10.153571385570931,-2.701171362539693,7.452400023031238,482.4647757369013,598.9968841072183
1.708949815397467E12,2.6956521739130435,-5.8478260869565215,5.554347826086956,10.143618600799872,-2.6742699950063233,7.469348605793549,482.4641266422423,598.9976774451349
1.708949815416999E12,2.717391304347826,-5.83695652173913,5.554347826086956,10.148594993185402,-2.6703754270524307,7.478219566132971,482.4633333043258,598.9940713636961
1.7089498154365312E12,2.7282608695652173,-5.858695652173913,5.576086956521739,10.155085939775223,-2.665543277924453,7.48954266185077,482.4593666147431,598.989599822712
1.7089498154560635E12,2.7065217391304346,-5.869565217391304,5.565217391304348,10.147224682238662,-2.6744863598926507,7.472738322346011,482.45972722288695,598.9863543494171
1.7089498154755957E12,2.7282608695652173,-5.8478260869565215,5.58695652173913,10.149532574359487,-2.678885779247974,7.470646795111513,482.45972722288695,598.9956580395291
1.708949815495128E12,2.7282608695652173,-5.8478260869565215,5.543478260869565,10.145926492920697,-2.668572386333036,7.477354106587661,482.458429033569,598.9839022140387
1.70894981551466E12,2.717391304347826,-5.869565217391304,5.554347826086956,10.146431344322128,-2.663812358833834,7.482618985488294,482.46001570940206,598.9683960638519
1.7089498155341921E12,2.7282608695652173,-5.858695652173913,5.510869565217392,10.153355020684604,-2.6754960626955118,7.477858957989092,482.45987146614453,598.9642851310117
1.7089498155537244E12,2.7391304347826084,-5.8478260869565215,5.510869565217392,10.145421641519267,-2.667562683530175,7.477858957989092,482.46102541220495,598.9698384964274
1.7089498155732566E12,2.75,-5.83695652173913,5.510869565217392,10.156961102123393,-2.6686445079618117,7.4883165941615815,482.46275633129557,598.9632754282088
1.7089498155927888E12,2.7282608695652173,-5.83695652173913,5.543478260869565,10.155879277691756,-2.6749912112940812,7.480888066397675,482.4628284529243,598.9574335762779
1.7089498156123208E12,2.7065217391304346,-5.826086956521739,5.543478260869565,10.160062332160752,-2.664533575121591,7.495528757039161,482.4614581419776,598.9453171426436
1.708949815631853E12,2.7282608695652173,-5.858695652173913,5.543478260869565,10.147729533640092,-2.6625141695158696,7.4852153641242225,482.4600878310309,598.9660160501023
1.7089498156513853E12,2.7282608695652173,-5.8478260869565215,5.521739130434782,10.158619899585236,-2.662442047887093,7.496177851698143,482.46131389872005,598.9537553732104
1.7089498156709175E12,2.75,-5.869565217391304,5.565217391304348,10.16575994083404,-2.656960804100133,7.508799136733907,482.4636217908409,598.9478413996508
1.7089498156904497E12,2.75,-5.8478260869565215,5.532608695652174,10.164317508258524,-2.6734766570897897,7.490840851168734,482.4616745068639,598.9556305355586
1.7089498157099817E12,2.7391304347826084,-5.869565217391304,5.554347826086956,10.165110846175057,-2.656239587812375,7.508871258362682,482.4610975338337,598.9438025884393
1.708949815729514E12,2.684782608695652,-5.8478260869565215,5.532608695652174,10.158619899585236,-2.6475128707305045,7.511107028854732,482.4629726961819,598.9539717380967
1.7089498157490461E12,2.7282608695652173,-5.83695652173913,5.521739130434782,10.188334010640862,-2.654941398494411,7.533392612146451,482.46398239898474,598.9386098311675
1.7089498157685784E12,2.7065217391304346,-5.858695652173913,5.543478260869565,10.224539068286308,-2.6430413297464046,7.581497738539904,482.4676606020523,598.9623378470347
1.7089498157881106E12,2.7282608695652173,-5.83695652173913,5.543478260869565,10.240405826616982,-2.636406139899032,7.60399968671795,482.46722787227964,598.934571019956
1.7089498158076426E12,2.6956521739130435,-5.83695652173913,5.565217391304348,10.245814948775166,-2.667634805158949,7.578180143616217,482.46838181834005,598.9278637084799
1.7089498158271748E12,2.7065217391304346,-5.869565217391304,5.543478260869565,10.219129946128124,-2.6361897750127046,7.582940171115419,482.4680212101962,598.9292340194266
1.708949815846707E12,2.717391304347826,-5.891304347826087,5.532608695652174,10.183069131740229,-2.6413825322845623,7.541686599455667,482.4680212101962,598.9399080204854
1.7089498158662393E12,2.75,-5.858695652173913,5.532608695652174,10.153210777427052,-2.6193133138791707,7.5338974635478815,482.46910303462784,598.9465432103328
1.7089498158857712E12,2.7065217391304346,-5.83695652173913,5.565217391304348,10.22432270339998,-2.54546076601276,7.678861937387221,482.46939152114294,599.1224478629169
1.7089498159053035E12,2.717391304347826,-5.83695652173913,5.565217391304348,10.751964539523666,-2.192064785011384,8.559899754512282,482.46852606159763,598.8021557095237
1.7089498159248357E12,2.7391304347826084,-5.858695652173913,5.510869565217392,10.035796765780065,-2.7194902562487435,7.316306509531321,482.470329102317,598.8550208634164
1.708949815944368E12,2.782608695652174,-5.83695652173913,5.163043478260869,10.169077535757726,-2.7727160182852773,7.396361517472449,482.46910303462784,598.9815943219179
1.7089498159639001E12,2.4347826086956523,-5.706521739130435,5.8478260869565215,10.187252186209225,-2.6546529119793076,7.532599274229917,482.4706897104609,598.9503656566579
1.7089498159834321E12,2.8478260869565215,-5.945652173913043,5.478260869565217,10.18905522692862,-2.641166167398235,7.547889059530385,482.47083395371845,598.9350758713574
1.7089498160029644E12,2.6630434782608696,-5.815217391304348,5.5978260869565215,10.209465647872168,-2.6255157739538877,7.5839498739182805,482.4696078860293,598.9312534250323
1.7089498160224966E12,2.8152173913043477,-5.793478260869565,5.423913043478261,10.213071729310958,-2.6279679093322645,7.585103819978693,482.4694636427717,598.9326958576079
1.7089498160420288E12,2.6956521739130435,-5.858695652173913,5.532608695652174,10.243290691768014,-2.6248666792949056,7.618424012473108,482.46398239898474,598.9453171426436
1.708949816061561E12,2.7065217391304346,-5.9021739130434785,5.521739130434782,10.267667802294232,-2.6354685587249476,7.632199243569285,482.462612088038,598.9705597127152
1.708949816081093E12,2.75,-5.891304347826087,5.58695652173913,10.319306888497698,-2.679895482050834,7.639411406446864,482.46275633129557,599.0051059728987
1.7089498161006252E12,2.75,-5.9021739130434785,5.565217391304348,10.349381607697202,-2.699873173221728,7.649508434475474,482.45410173584247,599.0377770707343
1.7089498161201575E12,2.7282608695652173,-5.891304347826087,5.532608695652174,10.396116423143916,-2.7269909056414265,7.669125517502489,482.45648174959206,599.0895604001952
1.7089498161396897E12,2.7282608695652173,-5.83695652173913,5.521739130434782,10.398712801779844,-2.7037677411756214,7.694945060604223,482.45720296587984,599.0716021146301
1.708949816159222E12,2.7065217391304346,-5.815217391304348,5.5978260869565215,10.342530052963502,-2.616212083841811,7.726317969121691,482.4568423577359,599.0361182732723
1.708949816178754E12,2.7065217391304346,-5.826086956521739,5.630434782608695,10.237160353322071,-2.5725063768036813,7.66465397651839,482.45828479031144,598.9747427671841
1.7089498161982861E12,2.7391304347826084,-5.83695652173913,5.5978260869565215,10.21011474253115,-2.5742372958943003,7.63587744663685,482.45951085800067,598.9456056291588
1.7089498162178184E12,2.7391304347826084,-5.880434782608695,5.5978260869565215,10.18407883454309,-2.596595000814796,7.587483833728294,482.4600878310309,598.9398358988567
1.7089498162373506E12,2.684782608695652,-5.869565217391304,5.619565217391304,10.167274495038331,-2.592772554489679,7.574501940548652,482.46311693943943,598.9251952082152
1.7089498162568828E12,2.7391304347826084,-5.891304347826087,5.521739130434782,10.183429739884108,-2.5895270811947686,7.5939026586893394,482.46571331807536,598.932335249464
1.7089498162764148E12,2.7065217391304346,-5.815217391304348,5.543478260869565,10.182059428937368,-2.5844785671804633,7.597580861756905,482.46996849417314,598.929450384313
1.708949816295947E12,2.652173913043478,-5.826086956521739,5.543478260869565,10.183141253369005,-2.5820264318020865,7.601114821566918,482.4676606020523,598.917550315565
1.7089498163154792E12,2.6739130434782608,-5.826086956521739,5.5,10.176289698635305,-2.569549390023875,7.60674030861143,482.471627291635,598.9166127343908
1.7089498163350115E12,2.7065217391304346,-5.826086956521739,5.565217391304348,10.184295199429418,-2.566015430213861,7.618279769215556,482.4747285216723,598.9078138956802
1.7089498163545437E12,2.7282608695652173,-5.858695652173913,5.554347826086956,10.170087238560587,-2.5596687268815916,7.610418511678995,482.4737188188695,598.9065157063623
1.7089498163740757E12,2.717391304347826,-5.869565217391304,5.576086956521739,10.16164900799382,-2.5673136195318254,7.594335388461994,482.47645944076294,598.9033423546961
1.708949816393608E12,2.6630434782608696,-5.858695652173913,5.608695652173913,10.162298102652802,-2.573948809379198,7.588349293273604,482.4802818870881,598.8971398946214
1.7089498164131401E12,2.6956521739130435,-5.826086956521739,5.576086956521739,10.165976305720367,-2.5709918225993906,7.594984483120976,482.4795606708003,598.8867543800777
1.7089498164326724E12,2.6630434782608696,-5.815217391304348,5.565217391304348,10.158619899585236,-2.5621929838887443,7.596426915696492,482.4825897792089,598.8877640828805
1.7089498164522043E12,2.6739130434782608,-5.83695652173913,5.565217391304348,10.155951399320532,-2.566015430213861,7.589935969106671,482.4820128061787,598.8790373657987
1.7089498164717366E12,2.6739130434782608,-5.826086956521739,5.543478260869565,10.159701724016873,-2.573299714720216,7.586402009296657,482.4816521980348,598.8741330950419
1.7089498164912688E12,2.6739130434782608,-5.826086956521739,5.565217391304348,10.155951399320532,-2.5616881324873138,7.594263266833218,482.48403221178444,598.8791816090562
1.708949816510801E12,2.6739130434782608,-5.826086956521739,5.565217391304348,10.153210777427052,-2.569188781879996,7.584021995547056,482.4867728336779,598.8735561220117
1.7089498165303333E12,2.684782608695652,-5.815217391304348,5.554347826086956,10.149532574359487,-2.555052942639941,7.594479631719546,482.48958557720016,598.8833646635252
1.7089498165498652E12,2.684782608695652,-5.83695652173913,5.565217391304348,10.147729533640092,-2.5673136195318254,7.580415914108267,482.4889364825412,598.8778834197383
1.7089498165693975E12,2.684782608695652,-5.858695652173913,5.576086956521739,10.146359222693352,-2.5512304963148242,7.595128726378528,482.4876382932232,598.8752149194736
1.7089498165889297E12,2.7065217391304346,-5.815217391304348,5.543478260869565,10.146647709208455,-2.543008630634384,7.603639078574071,482.4900904286016,598.8654784995888
1.708949816608462E12,2.6630434782608696,-5.83695652173913,5.641304347826087,10.149460452730711,-2.5493553339666537,7.600105118764057,482.4898019420865,598.8606463504608
1.7089498166279941E12,2.684782608695652,-5.858695652173913,5.58695652173913,10.143330114284769,-2.5401958871121284,7.6031342271726405,482.491244374662,598.8584105799688
1.7089498166475261E12,2.717391304347826,-5.83695652173913,5.565217391304348,10.144988911746612,-2.539691035710698,7.605297876035914,482.49326378026774,598.8556699580753
1.7089498166670583E12,2.684782608695652,-5.815217391304348,5.5978260869565215,10.158331413070133,-2.544162576694797,7.614168836375336,482.49463409121444,598.8649736481874
1.7089498166865906E12,2.6630434782608696,-5.815217391304348,5.58695652173913,10.201748633593159,-2.5422152927178496,7.659533340875309,482.4986729024259,598.8755034059886
1.7089498167061228E12,2.6739130434782608,-5.858695652173913,5.576086956521739,10.200161957760091,-2.514015735866515,7.686146221893576,482.4968698617065,598.8392983483432
1.708949816725655E12,2.6956521739130435,-5.83695652173913,5.576086956521739,10.190641902761687,-2.5103375327989506,7.6803043699627365,482.49795168613815,598.8313649691779
1.708949816745187E12,2.6630434782608696,-5.815217391304348,5.510869565217392,10.17535211746122,-2.556206888700353,7.619145228760867,482.50191837572083,598.8455729300467
1.7089498167647192E12,2.6630434782608696,-5.815217391304348,5.554347826086956,10.122919693341219,-2.5190642498808202,7.603855443460398,482.5040820245841,598.8348268073591
1.7089498167842515E12,2.684782608695652,-5.826086956521739,5.5978260869565215,10.114409341145675,-2.5137993709801876,7.600609970165488,482.5055244571596,598.8320140638368
1.7089498168037837E12,2.6630434782608696,-5.826086956521739,5.641304347826087,10.378807232237724,-2.272985252497822,8.105821979739902,482.5040820245841,599.0558074779282
1.708949816823316E12,2.630434782608696,-5.83695652173913,5.608695652173913,10.662750084728014,-2.056620366170451,8.606129718557563,482.50574082204594,598.7714318956652
1.708949816842848E12,2.684782608695652,-5.869565217391304,5.619565217391304,10.017982723472445,-2.791900371539638,7.226082351932806,482.5087699304545,598.9205794239735
1.7089498168623801E12,2.684782608695652,-5.83695652173913,5.184782608695652,10.113111151827711,-2.7554789490078626,7.357632202819849,482.5094911467423,598.9247624784425
1.7089498168819124E12,2.5869565217391304,-5.663043478260869,5.684782608695652,10.131574288794313,-2.5488504825652214,7.582723806229092,482.5092026602272,598.861583931635
1.7089498169014446E12,2.641304347826087,-5.869565217391304,5.880434782608695,10.127751842469197,-2.510553897685277,7.6171979447839195,482.5093469034847,598.8403801727749
1.7089498169209768E12,2.7282608695652173,-5.815217391304348,5.326086956521739,10.144916790117836,-2.4967065449603263,7.64821024515751,482.5087699304545,598.8268934281938
1.7089498169405088E12,2.7065217391304346,-5.760869565217392,5.456521739130435,10.160134453789528,-2.501250207573201,7.658884246216327,482.5084093223106,598.8328074017534
1.708949816960041E12,2.619565217391304,-5.804347826086956,5.5978260869565215,10.194103740942925,-2.520073952683682,7.674029788259243,482.5058129436747,598.8378559157677
1.7089498169795732E12,2.641304347826087,-5.923913043478261,5.58695652173913,10.22655847389203,-2.5231751827210402,7.70338329117099,482.5040099029553,598.8542996471285
1.7089498169991055E12,2.7282608695652173,-5.869565217391304,5.663043478260869,10.257282287750517,-2.5515911044587014,7.705691183291815,482.50328868666753,598.8705991352319
1.7089498170186375E12,2.684782608695652,-5.804347826086956,5.58695652173913,10.308344400923778,-2.599047136193173,7.709297264730605,482.50509172738697,598.9138721124974
1.7089498170381697E12,2.6739130434782608,-5.815217391304348,5.521739130434782,10.344693701826776,-2.6157072324403803,7.728986469386395,482.5040099029553,598.9283685598813
1.708949817057702E12,2.684782608695652,-5.75,5.58695652173913,10.340366404100228,-2.5673136195318245,7.773052784568404,482.50530809227325,598.9219497349203
1.7089498170772341E12,2.641304347826087,-5.739130434782608,5.608695652173913,10.255911976803777,-2.4498274862560603,7.8060844905477165,482.5045868759855,598.8981495974242
1.7089498170967664E12,2.6739130434782608,-5.815217391304348,5.5978260869565215,10.191074632534342,-2.43237405209232,7.758700580442022,482.50588506530346,598.8743494599282
1.7089498171162983E12,2.684782608695652,-5.8478260869565215,5.5978260869565215,10.133882180915139,-2.4517747702330066,7.682107410682132,482.50357717318263,598.8524244847804
1.7089498171358306E12,2.6630434782608696,-5.880434782608695,5.6521739130434785,10.127391234325318,-2.4662712176169412,7.661120016708376,482.5049474841294,598.8439862542136
1.7089498171553628E12,2.717391304347826,-5.9021739130434785,5.5978260869565215,10.1235687880002,-2.4757191509865697,7.647849637013631,482.5073996195078,598.8486020384553
1.708949817174895E12,2.7282608695652173,-5.815217391304348,5.543478260869565,10.11022628667668,-2.457111770762416,7.653114515914264,482.5063899167049,598.8495396196294
1.7089498171944272E12,2.619565217391304,-5.826086956521739,5.576086956521739,10.121549382394479,-2.454731757012815,7.666817625381664,482.503793538069,598.8452844435316
1.7089498172139592E12,2.684782608695652,-5.858695652173913,5.445652173913043,10.121982112167133,-2.440018944742553,7.6819631674245805,482.50415414621284,598.8465105112208
1.7089498172334915E12,2.6630434782608696,-5.771739130434782,5.565217391304348,10.125011220575717,-2.445788675044617,7.6792225455311,482.5056687004172,598.8465105112208
1.7089498172530237E12,2.6630434782608696,-5.793478260869565,5.576086956521739,10.126958504552663,-2.4363407416749876,7.690617762877675,482.50509172738697,598.838072280654
1.708949817272556E12,2.6630434782608696,-5.858695652173913,5.543478260869565,10.11383236811547,-2.4266764434190318,7.687155924696437,482.50480324087187,598.8391541050856
1.7089498172920881E12,2.6630434782608696,-5.83695652173913,5.608695652173913,10.12905003178716,-2.4426153233784813,7.6864347084086795,482.50422626784166,598.8418226053503
1.70894981731162E12,2.7065217391304346,-5.8478260869565215,5.565217391304348,10.110082043419128,-2.4384322689094864,7.671649774509642,482.50364929481145,598.8282637391405
1.7089498173311523E12,2.6739130434782608,-5.83695652173913,5.554347826086956,10.112389935539953,-2.420690348230641,7.691699587309312,482.50321656503877,598.8132624403552
1.7089498173506846E12,2.684782608695652,-5.815217391304348,5.554347826086956,10.108783854101164,-2.4398025798562264,7.6689812742449375,482.5043705110992,598.8092236291437
1.7089498173702168E12,2.6739130434782608,-5.804347826086956,5.554347826086956,10.10799051618463,-2.432734660236199,7.675255855948431,482.50364929481145,598.8027326825539
1.708949817389749E12,2.6630434782608696,-5.826086956521739,5.532608695652174,10.10698081338177,-2.435475282129679,7.67150553125209,482.50206261897836,598.7968187089942
1.708949817409281E12,2.684782608695652,-5.804347826086956,5.565217391304348,10.109577192017698,-2.4421825936058275,7.66739459841187,482.50148564594815,598.7894623028592
1.7089498174288132E12,2.684782608695652,-5.826086956521739,5.565217391304348,10.11895300375855,-2.4462935264460475,7.672659477312503,482.50004321337263,598.7857840997916
1.7089498174483455E12,2.684782608695652,-5.793478260869565,5.576086956521739,10.120756044477945,-2.4401631880001053,7.68059285647784,482.4980959293957,598.7879477486548
1.7089498174678777E12,2.6739130434782608,-5.804347826086956,5.521739130434782,10.137271897467603,-2.442254715234604,7.6950171822329985,482.49492257772954,598.7893901812304
1.70894981748741E12,2.6739130434782608,-5.826086956521739,5.532608695652174,10.12767972084042,-2.4371340795915213,7.6905456412488995,482.4936243884116,598.7954483980475
1.708949817506942E12,2.6630434782608696,-5.83695652173913,5.576086956521739,10.142753141254563,-2.439225606826021,7.703527534428542,482.4960044021612,598.7836204509283
1.708949817526474E12,2.684782608695652,-5.880434782608695,5.543478260869565,10.144051330572527,-2.4476638373927884,7.6963874931797385,482.49470621284325,598.7895344244879
1.7089498175460063E12,2.6956521739130435,-5.869565217391304,5.565217391304348,10.144700425231509,-2.4579051086789505,7.686795316552558,482.49412923981305,598.7817452885802
1.7089498175655386E12,2.6630434782608696,-5.8478260869565215,5.554347826086956,10.172755738825291,-2.4537220542099547,7.7190336846153365,482.49311953701016,598.7858562214203
1.7089498175850706E12,2.652173913043478,-5.8478260869565215,5.58695652173913,10.195690416775992,-2.4533614460660758,7.7423289707099165,482.4926146856087,598.801722979751
1.7089498176046028E12,2.652173913043478,-5.83695652173913,5.58695652173913,10.23341002862573,-2.4524959865207654,7.780914042104965,482.4916049828059,598.7709270442638
1.708949817624135E12,2.652173913043478,-5.826086956521739,5.58695652173913,10.234636096314919,-2.4607178522012054,7.773918244113713,482.4918213476922,598.7704221928624
1.7089498176436672E12,2.6630434782608696,-5.858695652173913,5.543478260869565,10.222736027566913,-2.469444569283076,7.7532914582838375,482.4939128749267,598.7739561526723
1.7089498176631995E12,2.684782608695652,-5.793478260869565,5.543478260869565,10.17225088742386,-2.4743488400398306,7.69790204738403,482.493480145154,598.7817452885802
1.7089498176827314E12,2.6630434782608696,-5.793478260869565,5.554347826086956,10.175712725605099,-2.4657663662155116,7.709946359389587,482.49326378026774,598.775037977104
1.7089498177022637E12,2.652173913043478,-5.83695652173913,5.58695652173913,10.350030702356184,-2.3314758934349893,8.018554808921195,482.4926146856087,598.9829646328645
1.708949817721796E12,2.6630434782608696,-5.869565217391304,5.5978260869565215,10.817739464967188,-1.8699695908987035,8.947769874068484,482.48857587439727,598.733856527073
1.7089498177413281E12,2.684782608695652,-5.869565217391304,5.619565217391304,10.095008623004988,-2.7112683905683026,7.383740232436685,482.4913164962908,598.8122527375523
1.7089498177608604E12,2.7065217391304346,-5.83695652173913,5.163043478260869,10.21970691915833,-2.7549019759776563,7.464804943180674,482.4882152662534,598.8505493224322
1.7089498177803923E12,2.4565217391304346,-5.673913043478261,5.717391304347826,10.229731825558165,-2.502332032004837,7.727399793553328,482.48785465810954,598.7876592621398
1.7089498177999246E12,2.760869565217391,-5.945652173913043,5.728260869565217,10.242280988965152,-2.5104096544277255,7.731871334537427,482.4867728336779,598.7707828010062
1.7089498178194568E12,2.652173913043478,-5.83695652173913,5.5,10.248050719267216,-2.4929562202639834,7.755094499003232,482.4879267797383,598.7632100299847
1.708949817838989E12,2.760869565217391,-5.75,5.369565217391304,10.274302992141605,-2.4783876512512757,7.795915340890329,482.4823012926938,598.7761919231644
1.7089498178585212E12,2.630434782608696,-5.804347826086956,5.565217391304348,10.290890966760037,-2.498221099164618,7.792669867595419,482.4807146168607,598.7835483292995
1.7089498178780532E12,2.641304347826087,-5.913043478260869,5.554347826086956,10.326230564860174,-2.498148977535841,7.828081587324332,482.4801376438305,598.7996314525166
1.7089498178975854E12,2.7065217391304346,-5.934782608695652,5.641304347826087,10.354934973112938,-2.514376344010394,7.840558629102544,482.47682004890686,598.8165079136501
1.7089498179171177E12,2.684782608695652,-5.913043478260869,5.608695652173913,10.417248060375222,-2.557216591503215,7.860031468872007,482.4741515486421,598.8775949332231
1.70894981793665E12,2.652173913043478,-5.858695652173913,5.532608695652174,10.446673684915744,-2.594503473580298,7.852170211335446,482.4754497379601,598.9005296111739
1.7089498179561821E12,2.641304347826087,-5.793478260869565,5.5,10.451289469157395,-2.549283212337877,7.902006256819518,482.47465640004356,598.8996641516286
1.708949817975714E12,2.641304347826087,-5.782608695652174,5.58695652173913,10.371378704473818,-2.4411007691741897,7.930277935299628,482.47350245398314,598.8468711193647
1.7089498179952463E12,2.6630434782608696,-5.793478260869565,5.619565217391304,10.305315292515195,-2.4188151858824716,7.886500106632723,482.47465640004356,598.8112430347494
1.7089498180147786E12,2.684782608695652,-5.83695652173913,5.608695652173913,10.250935584418247,-2.434537700955593,7.816397883462654,482.47537761633134,598.7701337063472
1.7089498180343108E12,2.7065217391304346,-5.858695652173913,5.608695652173913,10.253171354910297,-2.458770568224259,7.794400786686038,482.4717715348925,598.7725858417256
1.708949818053843E12,2.6956521739130435,-5.858695652173913,5.576086956521739,10.248050719267216,-2.4662712176169412,7.781779501650274,482.47465640004356,598.7756149501342
1.708949818073375E12,2.7391304347826084,-5.869565217391304,5.565217391304348,10.246175556919045,-2.440379552886432,7.805796004032613,482.47451215678603,598.7642918544163
1.7089498180929072E12,2.7391304347826084,-5.815217391304348,5.576086956521739,10.260744125931755,-2.4508371890589213,7.809906936872833,482.47379094049825,598.755060285933
1.7089498181124395E12,2.652173913043478,-5.83695652173913,5.521739130434782,10.261104734075634,-2.433167390008853,7.827937344066781,482.4766758056493,598.7446747713893
1.7089498181319717E12,2.6630434782608696,-5.804347826086956,5.521739130434782,10.264422328999322,-2.4307152546304778,7.833707074368844,482.4742957918997,598.7405638385492
1.7089498181515037E12,2.7065217391304346,-5.804347826086956,5.5978260869565215,10.260167152901548,-2.4222770240637086,7.83789012883784,482.4740073053846,598.740924446693
1.708949818171036E12,2.6739130434782608,-5.83695652173913,5.58695652173913,10.281010303617753,-2.4157860774738893,7.865224226143864,482.47407942701335,598.7249855667336
1.708949818190568E12,2.684782608695652,-5.858695652173913,5.576086956521739,10.270047816043833,-2.4259552271312756,7.844092588912558,482.4733582107256,598.7348662298758
1.7089498182101003E12,2.6630434782608696,-5.858695652173913,5.619565217391304,10.268100532066887,-2.4298497950851683,7.838250736981719,482.47263699443783,598.7345777433608
1.7089498182296326E12,2.6739130434782608,-5.8478260869565215,5.565217391304348,10.255118638887243,-2.4133339420955107,7.841784696791732,482.4719157781501,598.7308274186644
1.7089498182491646E12,2.684782608695652,-5.83695652173913,5.565217391304348,10.261104734075634,-2.418382456109816,7.842722277965818,482.4717715348925,598.7205140257495
1.7089498182686968E12,2.684782608695652,-5.83695652173913,5.532608695652174,10.259013206841136,-2.4126848474365286,7.846328359404607,482.470329102317,598.7156097549928
1.708949818288229E12,2.6630434782608696,-5.826086956521739,5.565217391304348,10.269975694415058,-2.4255946189873967,7.844381075427661,482.47234850792273,598.7128691330993
1.7089498183077612E12,2.684782608695652,-5.858695652173913,5.554347826086956,10.272355708164659,-2.4274697813355672,7.844885926829091,482.4706897104609,598.714239444046
1.7089498183272935E12,2.717391304347826,-5.83695652173913,5.543478260869565,10.275889667974672,-2.4164351721328714,7.859454495841801,482.46722787227964,598.7174127957121
1.7089498183468254E12,2.684782608695652,-5.826086956521739,5.521739130434782,10.271850856763228,-2.4218442942910556,7.850006562472172,482.4665066559919,598.7069551595397
1.7089498183663577E12,2.684782608695652,-5.83695652173913,5.565217391304348,10.272932681194865,-2.4219164159198314,7.8510162652750335,482.46816545345376,598.7053684837066
1.70894981838589E12,2.6739130434782608,-5.83695652173913,5.532608695652174,10.269038113240972,-2.420690348230643,7.848347765010329,482.4691751562566,598.7047915106764
1.708949818405422E12,2.684782608695652,-5.8478260869565215,5.565217391304348,10.276827249148758,-2.3983326433101473,7.87849460583861,482.46953576440046,598.6990217803743
1.7089498184249543E12,2.6739130434782608,-5.858695652173913,5.565217391304348,10.277764830322843,-2.4123242392926514,7.865440591030191,482.4704733455746,598.7073157676836
1.7089498184444863E12,2.684782608695652,-5.83695652173913,5.532608695652174,10.282308492935718,-2.4051120764150715,7.877196416520646,482.47040122394577,598.6977235910564
1.7089498184640186E12,2.6739130434782608,-5.858695652173913,5.543478260869565,10.294280683312499,-2.406626630619363,7.887654052693136,482.4706897104609,598.7006084562074
1.7089498184835508E12,2.6630434782608696,-5.8478260869565215,5.554347826086956,10.280361208958771,-2.385062263615402,7.895298945343369,482.4718436565213,598.7015460373815
1.708949818503083E12,2.6739130434782608,-5.858695652173913,5.521739130434782,10.329187551639981,-2.3927792778944106,7.93640827374557,482.4719157781501,598.7204419041207
1.7089498185226152E12,2.6630434782608696,-5.8478260869565215,5.543478260869565,10.352771324249664,-2.411530901376116,7.941240422873548,482.4701848590595,598.7097679030619
1.7089498185421472E12,2.6956521739130435,-5.8478260869565215,5.554347826086956,10.35781983826397,-2.392562913008083,7.965256925255886,482.4704733455746,598.6912326444665
1.7089498185616794E12,2.684782608695652,-5.869565217391304,5.521739130434782,10.344910066713103,-2.4059054143316043,7.939004652381499,482.4690309129991,598.693324171701
1.7089498185812117E12,2.6630434782608696,-5.83695652173913,5.521739130434782,10.29254976422188,-2.385350750130505,7.907199014091375,482.47011273743067,598.6851023060206
1.708949818600744E12,2.684782608695652,-5.83695652173913,5.510869565217392,10.284255776912664,-2.3989817379691294,7.8852740389435345,482.46874242648397,598.689141117232
1.7089498186202761E12,2.6739130434782608,-5.8478260869565215,5.565217391304348,10.310435928158276,-2.3347213667299,7.975714561428376,482.4685981832264,598.8235758332701
1.708949818639808E12,2.6956521739130435,-5.858695652173913,5.565217391304348,10.961261506231011,-1.8747296183979056,9.086531887833106,482.4663624127343,598.6320929088704
1.7089498186593403E12,2.6630434782608696,-5.9021739130434785,5.554347826086956,10.18220367219492,-2.374820992329239,7.807382679865681,482.4725648728091,598.587810228802
1.7089498186788726E12,2.7391304347826084,-5.869565217391304,5.108695652173913,10.311517752589912,-2.6028695825182897,7.708648170071623,482.46867030485515,598.7447468930181
1.7089498186984048E12,2.5,-5.717391304347826,5.880434782608695,10.310580171415827,-2.4157860774738884,7.894794093941939,482.47054546720335,598.7074600109411
1.7089498187179368E12,2.8043478260869565,-5.978260869565217,5.58695652173913,10.325365105314864,-2.4054005629301747,7.919964542384689,482.4683096967113,598.6985890506016
1.708949818737469E12,2.630434782608696,-5.9021739130434785,5.673913043478261,10.344837945084327,-2.3931398860382895,7.951698059046038,482.46939152114294,598.6907277930651
1.7089498187570012E12,2.793478260869565,-5.782608695652174,5.380434782608695,10.35421375682518,-2.4003520489158685,7.9538617079093115,482.46874242648397,598.7074600109411
1.7089498187765334E12,2.6739130434782608,-5.815217391304348,5.532608695652174,10.372749015420558,-2.404967833157519,7.967781182263039,482.4673721155372,598.7237594990444
1.7089498187960657E12,2.652173913043478,-5.869565217391304,5.565217391304348,10.399145531552499,-2.414848496299804,7.984297035252695,482.4668672641358,598.7381838247995
1.7089498188155977E12,2.7065217391304346,-5.913043478260869,5.630434782608695,10.451073104271067,-2.433744363039061,8.017328741232006,482.46542483156026,598.7787161801715
1.70894981883513E12,2.684782608695652,-5.923913043478261,5.576086956521739,10.500764906497587,-2.461943919890393,8.038820986607194,482.46614604784804,598.814921237817
1.708949818854662E12,2.7065217391304346,-5.880434782608695,5.510869565217392,10.527233544258303,-2.4706706369722653,8.056562907286038,482.4662181694768,598.8430486730396
1.7089498188741943E12,2.7065217391304346,-5.793478260869565,5.510869565217392,10.546345775883887,-2.4613669468601884,8.084978829023699,482.4647036152725,598.8499002277732
1.7089498188937266E12,2.6630434782608696,-5.771739130434782,5.554347826086956,10.488432107976926,-2.3554923958173273,8.1329397121596,482.46398239898474,598.8079254398258
1.7089498189132585E12,2.652173913043478,-5.804347826086956,5.565217391304348,10.392077611932471,-2.311642445521647,8.080435166410824,482.467444237166,598.7396262573751
1.7089498189327908E12,2.641304347826087,-5.826086956521739,5.58695652173913,10.351761621446803,-2.3290237580566107,8.022737863390192,482.4682375750825,598.7074600109411
1.708949818952323E12,2.6956521739130435,-5.8478260869565215,5.630434782608695,10.329908767927739,-2.350443881803022,7.979464886124717,482.4710503186048,598.6972187396549
1.7089498189718552E12,2.6956521739130435,-5.9021739130434785,5.576086956521739,10.33365909262408,-2.3632815317251126,7.970377560898967,482.47141092674866,598.6961369152233
1.7089498189913875E12,2.6630434782608696,-5.880434782608695,5.6521739130434785,10.332000295162237,-2.365517302217162,7.966482992945075,482.4734303323544,598.693324171701
1.7089498190109194E12,2.7065217391304346,-5.858695652173913,5.510869565217392,10.339068214782264,-2.35253540903752,7.986532805744744,482.47537761633134,598.7082533488576
1.7089498190304517E12,2.619565217391304,-5.8478260869565215,5.5978260869565215,10.331567565389582,-2.3416450430923756,7.989922522297206,482.47645944076294,598.6995987534045
1.708949819049984E12,2.652173913043478,-5.8478260869565215,5.489130434782608,10.337481538949197,-2.3290958796853882,8.008385659263809,482.47862308962624,598.7008248210936
1.708949819069516E12,2.6956521739130435,-5.804347826086956,5.521739130434782,10.340366404100228,-2.33746198862338,8.002904415476848,482.4792721842852,598.693324171701
1.7089498190890483E12,2.6630434782608696,-5.826086956521739,5.565217391304348,10.347001593947601,-2.3133733646122643,8.033628229335337,482.48093098174706,598.6941175096175
1.7089498191085803E12,2.6630434782608696,-5.891304347826087,5.576086956521739,10.333298484480201,-2.3282304201400787,8.005068064340122,482.48273402246645,598.689141117232
1.7089498191281125E12,2.641304347826087,-5.869565217391304,5.576086956521739,10.328971186753654,-2.3224606898380156,8.006510496915638,482.483527360383,598.6901508200349
1.7089498191476448E12,2.652173913043478,-5.83695652173913,5.565217391304348,10.321254172474644,-2.3150321620741092,8.006222010400535,482.48417645504196,598.6801980352639
1.708949819167177E12,2.6739130434782608,-5.83695652173913,5.532608695652174,10.32767299743569,-2.309695161544701,8.017977835890989,482.4825897792089,598.6689470611748
1.7089498191867092E12,2.6739130434782608,-5.8478260869565215,5.521739130434782,10.326086321602622,-2.3248407035876166,8.001245618015005,482.4838158468981,598.6794046973473
1.7089498192062412E12,2.684782608695652,-5.804347826086956,5.532608695652174,10.322263875277505,-2.3231819061257726,7.9990819691517325,482.4855467659887,598.6760871024236
1.7089498192257734E12,2.6630434782608696,-5.83695652173913,5.554347826086956,10.324139037625676,-2.3057284719620323,8.018410565663643,482.4906674016318,598.6699567639777
1.7089498192453057E12,2.6630434782608696,-5.826086956521739,5.554347826086956,10.317792334293406,-2.304502404272844,8.013289930020562,482.49052315837423,598.6771689268552
1.708949819264838E12,2.6630434782608696,-5.815217391304348,5.576086956521739,10.319739618270352,-2.308973945256943,8.01076567301341,482.4930474153814,598.6746446698481
1.7089498192843699E12,2.684782608695652,-5.8478260869565215,5.554347826086956,10.3240669159969,-2.314455189043903,8.009611726952997,482.49167710443464,598.663393695759
1.708949819303902E12,2.6630434782608696,-5.8478260869565215,5.565217391304348,10.329836646298963,-2.29426113298668,8.035575513312283,482.4942734830706,598.656325776139
1.7089498193234343E12,2.684782608695652,-5.83695652173913,5.510869565217392,10.323922672739348,-2.3129406348396113,8.010982037899737,482.49499469935836,598.6604367089792
1.7089498193429666E12,2.6630434782608696,-5.858695652173913,5.554347826086956,10.328610578609775,-2.3077478775677545,8.02086270104202,482.4948504561008,598.6494742214053
1.7089498193624988E12,2.641304347826087,-5.83695652173913,5.543478260869565,10.328033605579568,-2.2988047955995548,8.029228809980014,482.4980959293957,598.6447141939061
1.7089498193820308E12,2.652173913043478,-5.8478260869565215,5.543478260869565,10.31858567220994,-2.282865915640105,8.035719756569835,482.49939411871367,598.6394493150055
1.708949819401563E12,2.6630434782608696,-5.815217391304348,5.554347826086956,10.318369307323612,-2.2729131308690462,8.045456176454566,482.50062018640284,598.6488972483751
1.7089498194210952E12,2.630434782608696,-5.826086956521739,5.543478260869565,10.344837945084327,-2.2897174703738052,8.055120474710522,482.5015577675769,598.6478875455723
1.7089498194406274E12,2.6630434782608696,-5.83695652173913,5.5,10.36467139299767,-2.2825053074962263,8.082166085501443,482.5040820245841,598.6587057898886
1.7089498194601597E12,2.652173913043478,-5.83695652173913,5.554347826086956,10.377148434775881,-2.2614457918936957,8.115702642882185,482.5055244571596,598.618389799403
1.7089498194796917E12,2.6630434782608696,-5.826086956521739,5.554347826086956,10.386812733031839,-2.2854622942760354,8.101350438755803,482.50328868666753,598.6256019622806
1.7089498194992239E12,2.652173913043478,-5.83695652173913,5.543478260869565,10.338419120123282,-2.248247533827726,8.090171586295556,482.5035050515539,598.6285589490603
1.708949819518756E12,2.6739130434782608,-5.826086956521739,5.554347826086956,10.311445630961137,-2.283659253556639,8.027786377404498,482.5021347406071,598.6158655423958
1.7089498195382883E12,2.684782608695652,-5.804347826086956,5.543478260869565,10.275529059830793,-2.206849718910423,8.06867934092037,482.5014135243194,598.6550275868211
1.7089498195578206E12,2.652173913043478,-5.858695652173913,5.5978260869565215,10.50206309581555,-2.0671501239717145,8.434912971843836,482.49946624034243,598.829417685201
1.7089498195773525E12,2.641304347826087,-5.880434782608695,5.58695652173913,10.50653463679965,-1.9223298933899269,8.584204743409723,482.503793538069,598.4323881187902
1.7089498195968848E12,2.7065217391304346,-5.869565217391304,5.5978260869565215,10.214153553742594,-2.4987259505660475,7.715427603176547,482.50278383526614,598.6757264942797
1.708949819616417E12,2.7391304347826084,-5.8478260869565215,5.163043478260869,10.322047510391178,-2.515386046813255,7.806661463577923,482.5011250378043,598.6970023747685
1.7089498196359492E12,2.510869565217391,-5.706521739130435,5.739130434782608,10.329836646298963,-2.2653403598475883,8.064496286451375,482.50235110549346,598.6398099231494
1.7089498196554814E12,2.6630434782608696,-5.9021739130434785,5.782608695652174,10.33416394402551,-2.2604360890908346,8.073727854934676,482.50235110549346,598.6287031923179
1.7089498196750134E12,2.75,-5.793478260869565,5.260869565217392,10.359478635725813,-2.246516614737107,8.112962020988705,482.50314444341,598.6243758945914
1.7089498196945457E12,2.684782608695652,-5.739130434782608,5.445652173913043,10.375994488715468,-2.2339674513301198,8.142027037385349,482.50220686223594,598.6172358533425
1.708949819714078E12,2.619565217391304,-5.83695652173913,5.5,10.393015193106557,-2.230866221292761,8.162148971813796,482.4991777538273,598.6354826254228
1.70894981973361E12,2.684782608695652,-5.923913043478261,5.510869565217392,10.431528142872828,-2.251997858524067,8.179530284348761,482.4986007807971,598.6344008009912
1.7089498197531423E12,2.75,-5.858695652173913,5.619565217391304,10.453741604535772,-2.2792598342013157,8.174481770334456,482.49737471310794,598.6604367089792
1.7089498197726743E12,2.6956521739130435,-5.83695652173913,5.532608695652174,10.51461225922254,-2.3049351340454987,8.209677125177041,482.4970141049641,598.7099842679482
1.7089498197922065E12,2.6739130434782608,-5.804347826086956,5.445652173913043,10.546345775883887,-2.324335852186186,8.222009923697701,482.49795168613815,598.7099121463194
1.7089498198117388E12,2.6630434782608696,-5.771739130434782,5.554347826086956,10.529613558007904,-2.2467329796234345,8.28288057838447,482.4987450240547,598.7150327819626
1.708949819831271E12,2.6630434782608696,-5.760869565217392,5.58695652173913,10.47090655218441,-2.1707167828937504,8.30018976929066,482.4987450240547,598.6641870336756
1.708949819850803E12,2.6630434782608696,-5.804347826086956,5.5978260869565215,10.381836340646307,-2.146483915625085,8.235352425021222,482.49578803727485,598.6284147058028
1.7089498198703352E12,2.6630434782608696,-5.858695652173913,5.543478260869565,10.359118027581934,-2.175332567135401,8.183785460446533,482.496725618449,598.6079321632304
1.7089498198898674E12,2.6956521739130435,-5.913043478260869,5.58695652173913,10.347145837205153,-2.2117539896671765,8.135391847537976,482.4964371319339,598.6046866899355
1.7089498199093997E12,2.630434782608696,-5.880434782608695,5.58695652173913,10.347001593947601,-2.206489110766544,8.140512483181057,482.4948504561008,598.6000709056939
1.708949819928932E12,2.760869565217391,-5.8478260869565215,5.521739130434782,10.332721511449995,-2.193074487814247,8.139647023635748,482.49434560469933,598.5936520807329
1.7089498199484639E12,2.619565217391304,-5.793478260869565,5.608695652173913,10.348588269780668,-2.1935793392156757,8.155008930564993,482.4924704423512,598.6001430273227
1.708949819967996E12,2.652173913043478,-5.826086956521739,5.478260869565217,10.357603473377642,-2.1816792704676704,8.175924202909972,482.4917492260634,598.5852138501662
1.7089498199875283E12,2.6739130434782608,-5.782608695652174,5.532608695652174,10.358901662695606,-2.1857902033078904,8.173111459387716,482.4898019420865,598.596825432399
1.7089498200070605E12,2.6630434782608696,-5.782608695652174,5.565217391304348,10.375561758942814,-2.187016270997079,8.188545487945735,482.48857587439727,598.588459323461
1.7089498200265928E12,2.6739130434782608,-5.880434782608695,5.532608695652174,10.373325988450764,-2.1850689870201325,8.188257001430632,482.48691707693547,598.5777132007735
1.7089498200461248E12,2.684782608695652,-5.880434782608695,5.58695652173913,10.371667190988921,-2.1886029468301462,8.183064244158775,482.48504191458727,598.5699961864944
1.708949820065657E12,2.717391304347826,-5.869565217391304,5.543478260869565,10.377869651063639,-2.1970411773969136,8.180828473666725,482.4817964412924,598.558240361004
1.7089498200851892E12,2.717391304347826,-5.858695652173913,5.5,10.368638082580338,-2.1885308252013704,8.180107257378967,482.4799212789442,598.532492939531
1.7089498201047214E12,2.7391304347826084,-5.826086956521739,5.510869565217392,10.369503542125647,-2.1919205417538326,8.177583000371815,482.4802097654593,598.5178522488895
1.7089498201242537E12,2.717391304347826,-5.826086956521739,5.543478260869565,10.378735110608948,-2.200286650691824,8.178448459917124,482.4828061440952,598.5120825185875
1.7089498201437856E12,2.717391304347826,-5.8478260869565215,5.554347826086956,10.365608974171755,-2.1935793392156757,8.172029634956079,482.4797049140579,598.5089812885501
1.7089498201633179E12,2.7065217391304346,-5.83695652173913,5.532608695652174,10.375706002200365,-2.1902617442919894,8.185444257908376,482.4797049140579,598.5278771552894
1.70894982018285E12,2.684782608695652,-5.826086956521739,5.554347826086956,10.368277474436459,-2.1826168516417557,8.185660622794703,482.4807146168607,598.5379741833179
1.7089498202023823E12,2.684782608695652,-5.8478260869565215,5.565217391304348,10.378230259207518,-2.190045379405662,8.188184879801856,482.47920006265645,598.5444651299077
1.7089498202219146E12,2.6630434782608696,-5.8478260869565215,5.532608695652174,10.377581164548536,-2.1884587035725946,8.189122460975941,482.482229171065,598.5507397116113
1.7089498202414465E12,2.6956521739130435,-5.83695652173913,5.543478260869565,10.381764219017532,-2.176053783423159,8.205710435594373,482.482229171065,598.5459796841121
1.7089498202609788E12,2.6739130434782608,-5.8478260869565215,5.543478260869565,10.382557556934065,-2.1861508114517694,8.196406745482296,482.48511403621603,598.5544900363076
1.708949820280511E12,2.6739130434782608,-5.8478260869565215,5.565217391304348,10.38969759818287,-2.1702840531210974,8.219413545061773,482.48345523875423,598.5448978596804
1.7089498203000432E12,2.6630434782608696,-5.858695652173913,5.532608695652174,10.394962477083503,-2.173890134559887,8.221072342523616,482.4820128061787,598.5430226973323
1.7089498203195754E12,2.6739130434782608,-5.8478260869565215,5.521739130434782,10.399217653181275,-2.16869737728803,8.230520275893245,482.4832388738679,598.5410754133553
1.7089498203391074E12,2.684782608695652,-5.858695652173913,5.510869565217392,10.399434018067602,-2.162494917213312,8.23693910085429,482.47862308962624,598.5319159665008
1.7089498203586396E12,2.7065217391304346,-5.826086956521739,5.510869565217392,10.449486428438,-2.158095497857987,8.291390930580013,482.47768550845217,598.5634331182758
1.7089498203781719E12,2.6956521739130435,-5.8478260869565215,5.532608695652174,10.468526538434809,-2.183482311187065,8.285044227247743,482.4769642921644,598.5397772240374
1.708949820397704E12,2.684782608695652,-5.858695652173913,5.554347826086956,10.477469620403006,-2.1757652969080556,8.30170432349495,482.47494488655866,598.5325650611597
1.708949820417236E12,2.7065217391304346,-5.869565217391304,5.5,10.461386497186005,-2.1672549447125125,8.294131552473493,482.48093098174706,598.5272280606304
1.7089498204367683E12,2.717391304347826,-5.869565217391304,5.478260869565217,10.409026194694782,-2.1702119314923216,8.23881426320246,482.48006552220176,598.5223959115024
1.7089498204563005E12,2.7391304347826084,-5.83695652173913,5.543478260869565,10.405708599771096,-2.166605850053532,8.239102749717564,482.4811473466334,598.522828641275
1.7089498204758328E12,2.7065217391304346,-5.858695652173913,5.565217391304348,10.597624253943474,-2.0092364560647553,8.588387797878719,482.4788394545126,598.7676815709689
1.708949820495365E12,2.7065217391304346,-5.8478260869565215,5.608695652173913,11.077016720416156,-1.5758575887510293,9.501159131665126,482.4772527786795,598.4764544339722
1.708949820514897E12,2.7065217391304346,-5.9021739130434785,5.58695652173913,10.317936577550958,-2.0992442487769427,8.218692328774015,482.4836716036405,598.4194783472393
1.7089498205344292E12,2.7717391304347827,-5.83695652173913,5.032608695652174,10.442057900674094,-2.3897501694858274,8.052307731188266,482.47465640004356,598.6038212303903
1.7089498205539614E12,2.510869565217391,-5.717391304347826,5.880434782608695,10.43664877851591,-2.1898290145193364,8.246819763996573,482.47206002140763,598.5574470230874
1.7089498205734937E12,2.782608695652174,-5.967391304347826,5.58695652173913,10.449630671695552,-2.1683367691441493,8.281293902551402,482.4748727649299,598.5428063324459
1.708949820593026E12,2.684782608695652,-5.880434782608695,5.543478260869565,10.459150726693956,-2.1583118627443145,8.300838863949641,482.47588246773273,598.5374693319166
1.7089498206125579E12,2.8260869565217392,-5.782608695652174,5.4021739130434785,10.482157526273433,-2.159177322289624,8.322980203983809,482.4717715348925,598.5474221166876
1.70894982063209E12,2.6739130434782608,-5.804347826086956,5.532608695652174,10.504226744678824,-2.1654519039931177,8.338774840685707,482.4707618320897,598.5416523863855
1.7089498206516223E12,2.641304347826087,-5.923913043478261,5.554347826086956,10.51958865160807,-2.1733852831584564,8.346203368449613,482.4710503186048,598.5666064699419
1.7089498206711545E12,2.7065217391304346,-5.9021739130434785,5.5978260869565215,10.57627625182584,-2.1826168516417574,8.393659400184083,482.47054546720335,598.6011527301256
1.7089498206906868E12,2.7282608695652173,-5.891304347826087,5.58695652173913,10.617313458599265,-2.2108164084930895,8.406497050106175,482.46910303462784,598.6305783546661
1.7089498207102188E12,2.717391304347826,-5.9021739130434785,5.5,10.667149504083337,-2.2512045206075335,8.415944983475804,482.4629726961819,598.6859677655659
1.708949820729751E12,2.6956521739130435,-5.869565217391304,5.489130434782608,10.663038571243117,-2.2223558690972176,8.4406827021459,482.46398239898474,598.6851023060206
1.7089498207492832E12,2.6739130434782608,-5.826086956521739,5.532608695652174,10.583704779589747,-2.10357154650349,8.480133233086256,482.46059268243226,598.6225728538719
1.7089498207688154E12,2.684782608695652,-5.83695652173913,5.532608695652174,10.511583150813957,-2.063183434389048,8.448399716424909,482.46455937201495,598.5780738089173
1.7089498207883477E12,2.684782608695652,-5.826086956521739,5.532608695652174,10.486629067257532,-2.0832332471887156,8.403395820068816,482.46729999390845,598.5411475349841
1.7089498208078796E12,2.7065217391304346,-5.8478260869565215,5.521739130434782,10.469464119608894,-2.106672776540849,8.362791343068045,482.4629726961819,598.5391281293784
1.7089498208274119E12,2.7065217391304346,-5.8478260869565215,5.489130434782608,10.471050795441961,-2.116264953168029,8.354785842273932,482.45857327682654,598.5293917094937
1.708949820846944E12,2.717391304347826,-5.8478260869565215,5.619565217391304,10.476099309456266,-2.1006145597236827,8.375484749732584,482.4622514798941,598.5399214672949
1.7089498208664763E12,2.7391304347826084,-5.826086956521739,5.5,10.474440511994423,-2.0907338965813995,8.383706615413024,482.4646314936437,598.5404984403251
1.7089498208860083E12,2.684782608695652,-5.8478260869565215,5.510869565217392,10.481364188356899,-2.087776909801592,8.393587278555307,482.46059268243226,598.52607411457
1.7089498209055405E12,2.7282608695652173,-5.880434782608695,5.510869565217392,10.484537540023034,-2.077535638515428,8.407001901507606,482.4663624127343,598.5159770865414
1.7089498209250728E12,2.7282608695652173,-5.891304347826087,5.543478260869565,10.480931458584244,-2.0657076913961987,8.415223767188046,482.4697521292868,598.5145346539658
1.708949820944605E12,2.6956521739130435,-5.9021739130434785,5.510869565217392,10.49470668968042,-2.0617410018135303,8.43296568786689,482.46816545345376,598.5143904107083
1.7089498209641372E12,2.6956521739130435,-5.9021739130434785,5.510869565217392,10.493264257104904,-2.0757325977960335,8.417531659308871,482.4688866697415,598.5078273424897
1.7089498209836692E12,2.7065217391304346,-5.880434782608695,5.554347826086956,10.479344782751177,-2.0637604074192524,8.415584375331925,482.4735745756119,598.510279477868
1.7089498210032014E12,2.7282608695652173,-5.9021739130434785,5.532608695652174,10.489297567522236,-2.0767423005988945,8.412555266923341,482.47480064330114,598.5105679643832
1.7089498210227336E12,2.684782608695652,-5.9021739130434785,5.510869565217392,10.48323935070507,-2.071765908213365,8.411473442491705,482.482229171065,598.5171310326018
1.7089498210422659E12,2.684782608695652,-5.858695652173913,5.532608695652174,10.476243552713818,-2.070756205410504,8.405487347303314,482.48417645504196,598.5154722351399
1.708949821061798E12,2.6956521739130435,-5.869565217391304,5.510869565217392,10.485330877939568,-2.066356786055181,8.418974091884387,482.4838158468981,598.5156164783974
1.70894982108133E12,2.6956521739130435,-5.880434782608695,5.489130434782608,10.474512633623199,-2.0742901652205177,8.400222468402681,482.4867728336779,598.5203043842679
1.7089498211008623E12,2.6956521739130435,-5.83695652173913,5.467391304347826,10.478912052978522,-2.061524636927203,8.41738741605132,482.4856188876175,598.524126830593
1.7089498211203945E12,2.6739130434782608,-5.8478260869565215,5.5,10.491028486612855,-2.0630391911314945,8.42798929548136,482.49434560469933,598.5263626010851
1.7089498211399268E12,2.6956521739130435,-5.869565217391304,5.489130434782608,10.487422405174065,-2.0825120309009577,8.404910374273108,482.49138861791954,598.5271559390015
1.708949821159459E12,2.6739130434782608,-5.880434782608695,5.5,10.481292066728123,-2.062245853214961,8.419046213513163,482.4923261990936,598.5332862774476
1.708949821178991E12,2.652173913043478,-5.880434782608695,5.5,10.479993877410159,-2.0667895158278355,8.413204361582324,482.4964371319339,598.5222516682448
1.7089498211985232E12,2.6739130434782608,-5.869565217391304,5.521739130434782,10.490667878468976,-2.0719101514709166,8.41875772699806,482.49636501030506,598.5257856280549
1.7089498212180554E12,2.684782608695652,-5.880434782608695,5.510869565217392,10.491821824529389,-2.0752998680233787,8.41652195650601,482.4944898479569,598.5204486275254
1.7089498212375876E12,2.684782608695652,-5.869565217391304,5.489130434782608,10.491893946158164,-2.0630391911314945,8.42885475502667,482.4975910779943,598.5272280606304
1.7089498212571199E12,2.6630434782608696,-5.858695652173913,5.445652173913043,10.496870338543694,-2.067727097001921,8.429143241541773,482.5001153350014,598.517708005632
1.7089498212766519E12,2.684782608695652,-5.83695652173913,5.456521739130435,10.490379391953873,-2.065924056282526,8.424455335671347,482.5030002001524,598.5201601410104
1.708949821296184E12,2.6956521739130435,-5.858695652173913,5.5,10.528603855205043,-2.06246221810129,8.466141637103753,482.50307232178125,598.5286704932059
1.7089498213157163E12,2.684782608695652,-5.880434782608695,5.456521739130435,10.558317966260669,-2.068592556547232,8.489725409713436,482.50545233553083,598.5484318194905
1.7089498213352485E12,2.7065217391304346,-5.9021739130434785,5.489130434782608,10.57851202231789,-2.0698907458651963,8.508621276452693,482.50177413246325,598.5041491394221
1.7089498213547808E12,2.7065217391304346,-5.869565217391304,5.510869565217392,10.58536357705159,-2.102994573473284,8.482369003578306,482.50675052484877,598.5047982340811
1.7089498213743127E12,2.6956521739130435,-5.869565217391304,5.510869565217392,10.522401395130325,-2.0585676501473973,8.463833744982928,482.507327497879,598.4958551521129
1.708949821393845E12,2.6956521739130435,-5.869565217391304,5.445652173913043,10.513602556419679,-2.084675679764233,8.428926876655446,482.50804871416676,598.5030673149905
1.7089498214133772E12,2.6739130434782608,-5.83695652173913,5.489130434782608,10.468959268207463,-2.0026012662173827,8.46635800199008,482.51086145768903,598.5359547777123
1.7089498214329094E12,2.6739130434782608,-5.83695652173913,5.489130434782608,11.067280300531424,-1.5514804782248106,9.515799822306613,482.507976592538,598.6472384509133
1.7089498214524414E12,2.6630434782608696,-5.880434782608695,5.532608695652174,10.651643353896542,-1.7315681852779612,8.920075168618581,482.5174966475364,598.3109352959318
1.7089498214719736E12,2.6739130434782608,-5.891304347826087,5.467391304347826,10.500476419982483,-2.398837494711577,8.101638925270906,482.5171360393925,598.58910841812
1.7089498214915059E12,2.8478260869565215,-5.815217391304348,5.358695652173913,10.506101907026995,-2.176630756453365,8.32947115057363,482.5224730399219,598.553696698391
1.708949821511038E12,2.630434782608696,-5.8478260869565215,5.706521739130435,10.52607959819789,-2.074145921962968,8.451933676234923,482.52680033764847,598.5213140870708
1.7089498215305703E12,2.5652173913043477,-5.9021739130434785,5.5978260869565215,10.53242630153016,-2.0644095020782363,8.468016799451924,482.52744943230744,598.5075388559745
1.7089498215501023E12,2.793478260869565,-5.804347826086956,5.228260869565217,10.546201532626336,-2.0546730821935046,8.491528450432831,482.52831489185274,598.5029951933617
1.7089498215696345E12,2.6630434782608696,-5.793478260869565,5.467391304347826,10.568198629402952,-2.057990677117191,8.51020795228576,482.5264397295046,598.511577667186
1.7089498215891667E12,2.619565217391304,-5.891304347826087,5.478260869565217,10.588392685460173,-2.056043393140243,8.53234929231993,482.528242770224,598.5197995328665
1.708949821608699E12,2.652173913043478,-5.967391304347826,5.532608695652174,10.619981958863969,-2.065274961623544,8.554706997240425,482.52622336461826,598.5425899675596
1.7089498216282312E12,2.7065217391304346,-5.967391304347826,5.554347826086956,10.663038571243117,-2.0917435993842606,8.571294971858856,482.52434820227006,598.5709337676685
1.7089498216477632E12,2.7065217391304346,-5.913043478260869,5.445652173913043,10.720591631006197,-2.130040184264205,8.590551446741992,482.52478093204275,598.6029557708449
1.7089498216672954E12,2.6956521739130435,-5.858695652173913,5.4021739130434785,10.728308645285207,-2.1355935496799408,8.592715095605266,482.5260791213607,598.6157934207671
1.7089498216868276E12,2.6630434782608696,-5.793478260869565,5.456521739130435,10.70941277854595,-2.068231948403353,8.641180830142597,482.526944580906,598.5886756883474
1.7089498217063599E12,2.6739130434782608,-5.804347826086956,5.5,10.619837715606417,-1.981902358758731,8.637935356847686,482.5284591351103,598.5459075624833
1.708949821725892E12,2.6956521739130435,-5.793478260869565,5.510869565217392,10.550817316867986,-1.9759883851991162,8.57482893166887,482.5314161218901,598.5175637623744
1.708949821745424E12,2.7065217391304346,-5.858695652173913,5.565217391304348,10.513097705018248,-2.002457022959833,8.510640682058416,482.531127635375,598.4947012060525
1.7089498217649563E12,2.6630434782608696,-5.891304347826087,5.58695652173913,10.521319570698688,-2.016448618942336,8.504870951756352,482.53220945980667,598.4990285037791
1.7089498217844885E12,2.6739130434782608,-5.869565217391304,5.576086956521739,10.51547771876785,-2.0167371054574392,8.49874061331041,482.533074919352,598.4978024360898
1.7089498218040208E12,2.760869565217391,-5.869565217391304,5.456521739130435,10.519372286721742,-2.017169835230094,8.502202451491648,482.53184885166274,598.4944127195374
1.708949821823553E12,2.630434782608696,-5.8478260869565215,5.532608695652174,10.515189232252746,-1.9901963460679468,8.5249928861848,482.53220945980667,598.4979466793474
1.708949821843085E12,2.6630434782608696,-5.858695652173913,5.478260869565217,10.523483219561962,-1.9968315359153195,8.526651683646643,482.5329306760944,598.4929702869618
1.7089498218626172E12,2.6739130434782608,-5.815217391304348,5.532608695652174,10.537186329029362,-1.986734507886709,8.550451821142653,482.5348058384426,598.4828011373045
1.7089498218821494E12,2.6739130434782608,-5.8478260869565215,5.554347826086956,10.528892341720146,-1.9720938172452236,8.556798524474923,482.5329306760944,598.4807817316988
1.7089498219016816E12,2.6739130434782608,-5.891304347826087,5.510869565217392,10.522689881645428,-1.9689204655790888,8.55376941606634,482.53357977075336,598.4833781103347
1.7089498219212139E12,2.6630434782608696,-5.8478260869565215,5.554347826086956,10.523915949334617,-1.9849314671673142,8.538984482167303,482.535959784503,598.4851811510541
1.7089498219407458E12,2.6630434782608696,-5.83695652173913,5.510869565217392,10.521031084183585,-1.9762768717142194,8.544754212469366,482.53632039264687,598.4634004191638
1.708949821960278E12,2.6739130434782608,-5.83695652173913,5.510869565217392,10.507616461231287,-1.9766374798580966,8.53097898137319,482.5343731086699,598.4643380003379
1.7089498219798103E12,2.7065217391304346,-5.815217391304348,5.576086956521739,10.512881340131921,-1.9763489933429952,8.536532346788926,482.5362482710181,598.4563324995438
1.7089498219993425E12,2.7065217391304346,-5.826086956521739,5.510869565217392,10.522257151872774,-1.9847872239097626,8.537469927963011,482.53357977075336,598.4570537158315
1.7089498220188745E12,2.684782608695652,-5.83695652173913,5.543478260869565,10.513097705018248,-1.9765653582293226,8.536532346788926,482.53574341961667,598.456909472574
1.7089498220384067E12,2.6956521739130435,-5.815217391304348,5.543478260869565,10.518434705547657,-1.9680550060337794,8.550379699513877,482.5356712979879,598.4445766740533
1.708949822057939E12,2.6956521739130435,-5.826086956521739,5.543478260869565,10.519155921835415,-1.981181142470973,8.537974779364442,482.53516644658646,598.4557555265136
1.7089498220774712E12,2.6956521739130435,-5.815217391304348,5.543478260869565,10.516920151343365,-1.9717332091013446,8.54518694224202,482.5332191626095,598.4452978903411
1.7089498220970034E12,2.684782608695652,-5.804347826086956,5.510869565217392,10.51374679967723,-1.9754835337976857,8.538263265879545,482.53430098704115,598.4377251193196
1.7089498221165354E12,2.6956521739130435,-5.826086956521739,5.532608695652174,10.512520731988042,-1.9612034513000793,8.551317280687963,482.53257006795053,598.4249595910263
1.7089498221360676E12,2.6956521739130435,-5.83695652173913,5.532608695652174,10.519805016494397,-1.9714447225862415,8.548360293908155,482.53610402776053,598.4329650918204
1.7089498221555999E12,2.6956521739130435,-5.815217391304348,5.532608695652174,10.519660773236845,-1.9669010599733667,8.552759713263479,482.5311997570038,598.4338305513658
1.708949822175132E12,2.6956521739130435,-5.83695652173913,5.532608695652174,10.518795313691536,-1.9670453032309183,8.551750010460617,482.53401250052605,598.4229401854205
1.7089498221946643E12,2.6956521739130435,-5.8478260869565215,5.543478260869565,10.528748098462595,-1.978801128721372,8.549946969741223,482.5339403788973,598.426978996632
1.7089498222141963E12,2.6739130434782608,-5.869565217391304,5.554347826086956,10.526223841455442,-1.9583185861490477,8.567905255306394,482.5356712979879,598.4254644424277
1.7089498222337285E12,2.684782608695652,-5.8478260869565215,5.543478260869565,10.567982264516624,-1.9771423312595289,8.590839933257095,482.5352385682152,598.4398166465542
1.7089498222532607E12,2.7065217391304346,-5.826086956521739,5.521739130434782,10.590267847808343,-1.9804599261832152,8.609807921625128,482.5323537030642,598.4411869575008
1.708949822272793E12,2.684782608695652,-5.83695652173913,5.532608695652174,10.590772699209774,-1.970218654897053,8.62055404431272,482.53430098704115,598.4142855899674
1.7089498222923252E12,2.7065217391304346,-5.83695652173913,5.554347826086956,10.584425995877504,-1.9912781704995837,8.59314782537792,482.5345173519275,598.4305850780709
1.7089498223118572E12,2.6739130434782608,-5.8478260869565215,5.532608695652174,10.545480316338578,-1.9650258976251962,8.580454418713382,482.5355991763591,598.419911077012
1.7089498223313894E12,2.7065217391304346,-5.83695652173913,5.5,10.540071194180394,-1.989763616295292,8.550307577885102,482.5292524730268,598.4103910220136
1.7089498223509216E12,2.7065217391304346,-5.826086956521739,5.554347826086956,10.504010379792497,-1.9353839081983448,8.568626471594152,482.52889186488295,598.4647707301106
1.7089498223704539E12,2.684782608695652,-5.83695652173913,5.543478260869565,11.131468550141877,-1.3571126886740537,9.774355861467823,482.5245645671564,598.4821520426455
1.708949822389986E12,2.6739130434782608,-5.891304347826087,5.608695652173913,10.568198629402952,-1.6988249658137526,8.869373663589199,482.5263676078758,598.2412658025344
1.708949822409518E12,2.6739130434782608,-5.8478260869565215,5.391304347826087,10.544326370278165,-2.301689660750588,8.242636709527577,482.5242760806413,598.5066733964293
1.7089498224290503E12,2.8152173913043477,-5.739130434782608,5.434782608695652,10.557740993230462,-2.079555044121152,8.47818594910931,482.5228336480658,598.461381013558
1.7089498224485825E12,2.608695652173913,-5.869565217391304,5.83695652173913,10.567333169857642,-2.0142849700790606,8.553048199778582,482.5242760806413,598.4272674831471
1.7089498224681147E12,2.619565217391304,-5.945652173913043,5.5978260869565215,10.588248442202621,-1.9958939547412342,8.592354487461387,482.5192996882558,598.4116170897028
1.708949822487647E12,2.858695652173913,-5.760869565217392,5.315217391304348,10.603970957275743,-2.0106067670114953,8.593364190264248,482.51756876916517,598.4258250505716
1.708949822507179E12,2.7065217391304346,-5.75,5.521739130434782,10.624309256590516,-1.9903405893254984,8.633968667265018,482.5166311879911,598.4398166465542
1.7089498225267112E12,2.652173913043478,-5.891304347826087,5.521739130434782,10.642339663784465,-1.9958218331124584,8.646517830672007,482.5138184444688,598.4401051330692
1.7089498225462434E12,2.717391304347826,-5.945652173913043,5.576086956521739,10.690805398321796,-2.022362592501949,8.668442805819847,482.51158267397676,598.4806374884412
1.7089498225657756E12,2.760869565217391,-5.913043478260869,5.619565217391304,10.725784388278054,-2.0485427437475607,8.677241644530493,482.5112220658329,598.5019133689301
1.7089498225853076E12,2.7391304347826084,-5.891304347826087,5.5,10.777423474481521,-2.0886423693469016,8.68878110513462,482.5096353899998,598.5293917094937
1.7089498226048398E12,2.7282608695652173,-5.8478260869565215,5.456521739130435,10.795742368190572,-2.081574449726874,8.714167918463698,482.503793538069,598.5477106032027
1.708949822624372E12,2.717391304347826,-5.826086956521739,5.510869565217392,10.775764677019678,-2.0156552810258024,8.760109395993876,482.5063899167049,598.5310505069555
1.7089498226439043E12,2.7065217391304346,-5.815217391304348,5.532608695652174,10.659071881660449,-1.9226905015338076,8.736381380126641,482.4998989701151,598.4658525545422
1.7089498226634365E12,2.7065217391304346,-5.804347826086956,5.543478260869565,10.61652012068273,-1.9293978130099543,8.687122307672777,482.49824017265325,598.4325323620477
1.7089498226829685E12,2.7065217391304346,-5.826086956521739,5.532608695652174,10.595604848337752,-1.9677665195186762,8.627838328819076,482.4968698617065,598.423445036822
1.7089498227025007E12,2.7065217391304346,-5.869565217391304,5.554347826086956,10.584642360763832,-1.96855985743521,8.616082503328622,482.4968698617065,598.425680807314
1.708949822722033E12,2.6956521739130435,-5.880434782608695,5.576086956521739,10.58125264421137,-1.9720216956164478,8.609230948594922,482.5001153350014,598.4287099157226
1.7089498227415652E12,2.782608695652174,-5.858695652173913,5.467391304347826,10.58911390174793,-1.9763489933429952,8.612764908404936,482.49470621284325,598.4294311320104
1.7089498227610974E12,2.7065217391304346,-5.880434782608695,5.554347826086956,10.59358544273203,-1.963727708307232,8.629857734424798,482.49557167238856,598.4296474968967
1.7089498227806294E12,2.6630434782608696,-5.880434782608695,5.478260869565217,10.598850321632662,-1.942884557591027,8.655965764041635,482.49614864541877,598.4243826179961
1.7089498228001616E12,2.717391304347826,-5.815217391304348,5.5,10.592431496671617,-1.93769180031917,8.654739696352447,482.49398499655547,598.4162328739444
1.7089498228196938E12,2.717391304347826,-5.815217391304348,5.554347826086956,10.60642309265412,-1.9477167067190049,8.658706385935115,482.4890807257987,598.4132758871647
1.708949822839226E12,2.7065217391304346,-5.869565217391304,5.510869565217392,10.602240038185125,-1.9440385036514396,8.658201534533685,482.4918213476922,598.4123383059905
1.7089498228587583E12,2.7065217391304346,-5.858695652173913,5.554347826086956,10.60815401174474,-1.9506015718700365,8.657552439874703,482.4867007120491,598.4118334545891
1.7089498228782903E12,2.7282608695652173,-5.83695652173913,5.58695652173913,10.600004267693075,-1.9429566792198028,8.657047588473272,482.4898019420865,598.4159443874294
1.7089498228978225E12,2.717391304347826,-5.8478260869565215,5.543478260869565,10.61190433644108,-1.9529094639908617,8.658994872450219,482.4889364825412,598.4083716164079
1.7089498229173547E12,2.717391304347826,-5.83695652173913,5.532608695652174,10.608442498259842,-1.9478609499765565,8.660581548283286,482.4903067934879,598.4111843599301
1.708949822936887E12,2.717391304347826,-5.8478260869565215,5.521739130434782,10.610389782236789,-1.9580300996339428,8.652359682602846,482.4886479960261,598.4042606835676
1.7089498229564192E12,2.7065217391304346,-5.858695652173913,5.510869565217392,10.598345470231232,-1.943533652250009,8.654811817981223,482.48843163113975,598.4007267237577
1.7089498229759512E12,2.717391304347826,-5.826086956521739,5.554347826086956,10.604764295192277,-1.9472118553175743,8.657552439874703,482.4962928886763,598.3901969659564
1.7089498229954834E12,2.7391304347826084,-5.815217391304348,5.521739130434782,10.6160152692813,-1.9609870864137502,8.65502818286755,482.49614864541877,598.3964715476599
1.7089498230150156E12,2.7282608695652173,-5.8478260869565215,5.532608695652174,10.614717079963336,-1.940143935697547,8.67457314426579,482.49607652378995,598.3979139802353
1.7089498230345479E12,2.717391304347826,-5.8478260869565215,5.478260869565217,10.61774618837192,-1.9365378542587575,8.681208334113162,482.4923261990936,598.3938030473952
1.70894982305408E12,2.6956521739130435,-5.858695652173913,5.510869565217392,10.629502013862373,-1.937403313804067,8.692098700058306,482.49622076704753,598.3844272356544
1.708949823073612E12,2.717391304347826,-5.815217391304348,5.532608695652174,10.622938945643776,-1.9487985311506417,8.674140414493134,482.49384075329795,598.3914230336455
1.7089498230931443E12,2.7065217391304346,-5.815217391304348,5.532608695652174,10.625030472878274,-1.9381245300918248,8.68690594278645,482.4970141049641,598.4053425079993
1.7089498231126765E12,2.7065217391304346,-5.83695652173913,5.554347826086956,10.639815406777313,-1.9475003418326793,8.692315064944633,482.4933359018965,598.3995727776972
1.7089498231322087E12,2.717391304347826,-5.83695652173913,5.565217391304348,10.653446394615937,-1.9529815856196393,8.700464808996298,482.4944898479569,598.3909903038729
1.7089498231517407E12,2.684782608695652,-5.858695652173913,5.554347826086956,10.652436691813076,-1.9483658013779888,8.704070890435087,482.4909558881469,598.3951733583419
1.708949823171273E12,2.717391304347826,-5.9021739130434785,5.543478260869565,10.66520222010639,-1.9443991117953203,8.72080310831107,482.4933359018965,598.3966879125462
1.7089498231908052E12,2.6956521739130435,-5.880434782608695,5.565217391304348,10.701623642638165,-1.9481494364916614,8.753474206146503,482.49737471310794,598.4168098469746
