Shimmer_6D72_TimestampSync_Unix_CAL,Shimmer_6D72_Accel_LN_X_CAL,Shimmer_6D72_Accel_LN_Y_CAL,Shimmer_6D72_Accel_LN_Z_CAL,Shimmer_6D72_ECG_LA-RA_24BIT_CAL,Shimmer_6D72_ECG_LL-LA_24BIT_CAL,Shimmer_6D72_ECG_LL-RA_24BIT_CAL,Shimmer_6D72_ECG_RESP_24BIT_CAL,Shimmer_6D72_ECG_Vx-RL_24BIT_CAL
ms,m/(s^2),m/(s^2),m/(s^2),mV,mV,mV,mV,mV
1.7089478506880144E12,1.8369565217391304,-6.380434782608695,2.9891304347826084,1.152431506208361,30.24449351364297,31.39692501985133,482.32240764169785,583.8479523477498
1.708947850707546E12,1.8804347826086956,-6.467391304347826,2.7282608695652173,1.1392332481423912,30.26331725875345,31.402550506895842,482.32240764169785,583.8312922515025
1.7089478507270776E12,1.9021739130434783,-6.478260869565217,2.641304347826087,1.138295666968306,30.286828909734357,31.425124576702665,482.32211915518275,583.8555972404
1.7089478507466094E12,1.9130434782608696,-6.380434782608695,2.5760869565217392,1.125169530531112,30.310412682344044,31.435582212875154,482.32190279029646,583.8475196179771
1.7089478507661409E12,1.8695652173913042,-6.434782608695652,2.7391304347826084,1.1323816934086912,30.329669157227176,31.46205085063587,482.3331537643855,583.8620881869898
1.7089478507856726E12,1.8152173913043477,-6.489130434782608,2.891304347826087,1.145579951474661,30.357147497790756,31.502727449265418,482.3356780213926,583.8488178072951
1.708947850805204E12,1.8369565217391304,-6.576086956521739,2.75,1.1551000064730652,30.364359660668335,31.5194596671414,482.3392841028314,583.8707427824429
1.7089478508247358E12,1.8695652173913042,-6.565217391304348,2.6739130434782608,1.1729140487806855,30.352026862147675,31.52494091092836,482.3407986570357,583.9040629749373
1.7089478508442673E12,1.8804347826086956,-6.5,2.608695652173913,1.2007529974881408,30.358373565479944,31.559126562968085,482.3379859135134,583.9160351653142
1.708947850863799E12,1.8804347826086956,-6.445652173913043,2.6630434782608696,1.200320267715486,30.3978240964203,31.598144364135788,482.34065441377817,583.9073805698611
1.7089478508833308E12,1.9021739130434783,-6.4021739130434785,2.6630434782608696,1.1688031159404655,30.385563419528417,31.554366535468883,482.3340192239308,583.8733391610789
1.7089478509028623E12,1.9130434782608696,-6.391304347826087,2.8478260869565215,1.138944761627288,30.384409473468004,31.523354235095294,482.3353895348775,583.8584099839222
1.708947850922394E12,1.8695652173913042,-6.423913043478261,2.9456521739130435,1.1218519356074257,30.377557918734304,31.49940985434173,482.34216896798245,583.8542269294533
1.7089478509419255E12,1.891304347826087,-6.510869565217391,2.793478260869565,1.1284150038260228,30.363133592979146,31.49154859680517,482.3369040890818,583.8775943371767
1.7089478509614573E12,1.891304347826087,-6.510869565217391,2.75,1.1097355019730928,30.370201512599177,31.47993701457227,482.342962305899,583.8959853525145
1.7089478509809888E12,1.891304347826087,-6.478260869565217,2.7391304347826084,1.1225010302664078,30.364648147183438,31.487149177449847,482.3434671573004,583.9101933133833
1.7089478510005205E12,1.858695652173913,-6.467391304347826,2.8260869565217392,1.1181016109110846,30.39969925876847,31.517800869679558,482.3343077104459,583.8896386491822
1.708947851020052E12,1.891304347826087,-6.434782608695652,2.869565217391304,1.1178852460247573,30.409363557024427,31.527248803049186,482.3405101705206,583.8941101901663
1.7089478510395837E12,1.9021739130434783,-6.478260869565217,2.858695652173913,1.1088700424277833,30.409002948880552,31.517872991308334,482.3384186432861,583.8757191748284
1.7089478510591155E12,1.8804347826086956,-6.489130434782608,2.8043478260869565,1.1001433253459127,30.403810191608695,31.503953516954606,482.3379859135134,583.879108891381
1.708947851078647E12,1.9021739130434783,-6.489130434782608,2.793478260869565,1.0896135675446472,30.44088070879945,31.530494276344097,482.34685687385286,583.8902877438412
1.7089478510981787E12,1.891304347826087,-6.467391304347826,2.858695652173913,1.0984124062552938,30.46194022440198,31.560352630657274,482.3419526030961,583.8915138115303
1.7089478511177102E12,1.891304347826087,-6.423913043478261,2.8478260869565215,1.1186064623125151,30.483720956292267,31.602327418604784,482.35053507692044,583.8654779035423
1.708947851137242E12,1.9021739130434783,-6.434782608695652,2.858695652173913,1.121419205834771,30.516680540642803,31.638099746477575,482.35406903673044,583.8542269294533
1.7089478511567734E12,1.891304347826087,-6.391304347826087,2.9456521739130435,1.1049754744738907,30.42443697743857,31.52941245191246,482.3526266041549,583.8605015111568
1.7089478511763052E12,1.9021739130434783,-6.445652173913043,2.902173913043478,1.087305675423822,30.372942134492654,31.460247809916474,482.35551146930595,583.8657663900574
1.7089478511958367E12,1.9130434782608696,-6.489130434782608,2.8478260869565215,1.0749728769031617,30.363710566009352,31.438683442912513,482.357747239798,583.8661269982013
1.7089478512153684E12,1.891304347826087,-6.434782608695652,2.880434782608696,0.9846765976758717,30.412681151948114,31.397357749623986,482.3507514418068,583.9439462356504
1.7089478512349001E12,1.8695652173913042,-6.445652173913043,2.891304347826087,1.5427537611429407,31.05932367555186,32.6020774366948,482.3550066179045,583.884229527024
1.7089478512544316E12,1.9021739130434783,-6.413043478260869,2.869565217391304,1.500202000165224,30.76182195685172,32.26202395701694,482.354213279988,583.7016175629637
1.7089478512739634E12,1.8804347826086956,-6.423913043478261,2.8478260869565215,1.0730977145549911,30.149509328545257,31.222607043100247,482.35623268559374,583.9959459299977
1.7089478512934949E12,1.967391304347826,-6.391304347826087,2.717391304347826,1.0718716468658027,30.31611029101733,31.387981937883133,482.34952537411755,583.8889895545232
1.7089478513130266E12,1.8043478260869565,-6.369565217391304,3.25,1.0591061185724877,30.403882313237467,31.462988431809954,482.3506071985492,583.8350425761989
1.708947851332558E12,1.8804347826086956,-6.413043478260869,3.1304347826086953,1.06523645701843,30.395155596155597,31.460392053174026,482.3555835909347,583.8344656031687
1.7089478513520898E12,1.8804347826086956,-6.413043478260869,2.6630434782608696,1.0766316743650048,30.40820961096402,31.484841285329022,482.3578193614268,583.8458608205153
1.7089478513716213E12,1.9021739130434783,-6.391304347826087,3.0869565217391304,1.074179538986628,30.41657571990201,31.490755258888637,482.3598387670325,583.8423268607053
1.708947851391153E12,1.8695652173913042,-6.489130434782608,3.0652173913043477,1.0826177695533956,30.46727722493139,31.549894994484784,482.3589733074872,583.8413892795312
1.7089478514106848E12,1.8804347826086956,-6.510869565217391,2.9130434782608696,1.0981239197401906,30.463959630007704,31.562083549747893,482.36063210494905,583.8453559691138
1.7089478514302163E12,1.858695652173913,-6.521739130434782,3.0,1.1100961101169717,30.476148185270812,31.586244295387782,482.35918967237353,583.8454280907426
1.708947851449748E12,1.891304347826087,-6.510869565217391,2.9130434782608696,1.1445702486718,30.459415967394825,31.603986216066627,482.3560163207074,583.8782434318356
1.7089478514692795E12,1.891304347826087,-6.413043478260869,2.858695652173913,1.1672164401073981,30.465113576068113,31.632330016175512,482.35197750949595,583.8643239574819
1.7089478514888113E12,1.9021739130434783,-6.304347826086956,2.9456521739130435,1.1538739387838768,30.479970631595926,31.633844570379804,482.35724238839657,583.8390813874104
1.7089478515083428E12,1.9130434782608696,-6.293478260869565,3.043478260869565,1.09761906833876,30.48970705148066,31.58732611981942,482.35291509067,583.8051842218857
1.7089478515278745E12,1.9130434782608696,-6.369565217391304,3.0,1.0764874311074533,30.463743265121376,31.54023069622883,482.34786657665575,583.8114588035893
1.708947851547406E12,1.8695652173913042,-6.5,3.0217391304347827,1.0639382677004656,30.464464481409134,31.5284027491096,482.34700111711044,583.8079248437792
1.7089478515669377E12,1.9021739130434783,-6.467391304347826,2.9239130434782608,1.0575915643681961,30.44794862841948,31.505540192787674,482.3428180626414,583.8147042768842
1.7089478515864695E12,1.967391304347826,-6.543478260869565,2.902173913043478,1.0539133613006308,30.448381358192133,31.502294719492763,482.34938113086,583.8394419955542
1.708947851606001E12,1.9130434782608696,-6.445652173913043,2.8369565217391304,1.0726649847823364,30.45480018315318,31.527465167935514,482.34779445502693,583.8198249125272
1.7089478516255327E12,1.9130434782608696,-6.413043478260869,2.8260869565217392,1.0733862010700943,30.463815386750152,31.537201587820245,482.3412313868084,583.826315859117
1.7089478516450642E12,1.8695652173913042,-6.4021739130434785,3.119565217391304,1.081463823492983,30.467565711446493,31.549029534939475,482.3393562244602,583.8158582229446
1.708947851664596E12,1.9456521739130435,-6.489130434782608,2.9782608695652173,1.0743237822441796,30.47427302292264,31.54859680516682,482.3392841028314,583.8139830605963
1.7089478516841274E12,1.934782608695652,-6.554347826086956,2.9130434782608696,1.0784347150843996,30.477806982732655,31.556241697817054,482.3372646972257,583.8208346153301
1.7089478517036592E12,1.934782608695652,-6.543478260869565,2.9239130434782608,1.0777134987966417,30.50788170193216,31.5855952007288,482.3341634671883,583.8245849400264
1.7089478517231907E12,1.9239130434782608,-6.510869565217391,2.934782608695652,1.0885317431130104,30.53629762366982,31.62482936678283,482.33776954862714,583.8304267919573
1.7089478517427224E12,1.9130434782608696,-6.423913043478261,2.9239130434782608,1.0914887298928178,30.58598942589634,31.677478155789156,482.3293313180603,583.8109539521878
1.7089478517622542E12,1.9130434782608696,-6.380434782608695,2.934782608695652,1.0932196489834367,30.50802594518971,31.601245594173147,482.3257973582503,583.8390813874104
1.7089478517817856E12,1.858695652173913,-6.4021739130434785,2.9456521739130435,1.0697801196313048,30.455882007584815,31.52566212721612,482.33618287279404,583.8499717533555
1.7089478518013174E12,1.891304347826087,-6.445652173913043,2.9130434782608696,1.0658134300486364,30.42292242323428,31.488735853282915,482.3351010483624,583.8636748628229
1.7089478518208489E12,1.891304347826087,-6.467391304347826,2.891304347826087,0.9662134607092692,30.411599327516477,31.377812788225746,482.3338749806732,583.8773779722903
1.7089478518403806E12,1.8804347826086956,-6.478260869565217,2.9130434782608696,1.3400198626541928,30.979557154125832,32.31957701678002,482.32608584476543,583.9068035968309
1.708947851859912E12,1.8695652173913042,-6.478260869565217,2.902173913043478,1.8269129785195566,30.959795827841265,32.78670880636082,482.33106223715095,583.7870095714343
1.7089478518794438E12,1.891304347826087,-6.456521739130435,2.8260869565217392,1.2450356775564764,30.2768761249633,31.521911802519778,482.334596196961,583.894542919939
1.7089478518989753E12,1.967391304347826,-6.434782608695652,2.717391304347826,1.0749007552743859,30.37402395892429,31.448924714198675,482.3306295073783,583.8853834730844
1.708947851918507E12,1.858695652173913,-6.4021739130434785,3.141304347826087,1.0768480392513322,30.420109679712024,31.496957718963355,482.32868222340136,583.8320134677904
1.7089478519380388E12,1.826086956521739,-6.532608695652174,3.1956521739130435,1.0798771476599154,30.438789181564953,31.518666329224867,482.33142284529487,583.8156418580583
1.7089478519575703E12,1.8804347826086956,-6.5,2.630434782608696,1.0857189995907546,30.441024952057003,31.526743951647756,482.3257973582503,583.818310358323
1.708947851977102E12,1.8695652173913042,-6.391304347826087,2.75,1.087666283567701,30.46677237352996,31.55443865709766,482.32954768294667,583.8367013736607
1.7089478519966335E12,1.8695652173913042,-6.358695652173913,3.0978260869565215,1.0896135675446472,30.478672442277965,31.56828600982261,482.32074884423605,583.8409565497585
1.7089478520161653E12,1.858695652173913,-6.445652173913043,2.967391304347826,1.082834134439723,30.498722255077634,31.581556389517356,482.32695130431074,583.8377831980924
1.7089478520356968E12,1.826086956521739,-6.5,2.967391304347826,1.1039657716710296,30.508530796591142,31.61249656826217,482.33250466972646,583.8423268607053
1.7089478520552285E12,1.8369565217391304,-6.543478260869565,2.902173913043478,1.1085815559126801,30.529229704049794,31.637811259962472,482.3303410208632,583.8422547390765
1.70894785207476E12,1.8804347826086956,-6.532608695652174,2.7282608695652173,1.1450029784444546,30.52273875745997,31.667741735904425,482.33279315624156,583.8605736327855
1.7089478520942917E12,1.891304347826087,-6.521739130434782,2.782608695652174,1.1522151413220336,30.53608125878349,31.688296400105525,482.32990829109053,583.8505487263857
1.7089478521138235E12,1.9021739130434783,-6.445652173913043,2.869565217391304,1.1228616384102867,30.515093864809735,31.637955503220024,482.32897070991646,583.8283352647228
1.708947852133355E12,1.9021739130434783,-6.413043478260869,2.8043478260869565,1.101441514663877,30.47239786057447,31.573839375238347,482.3288985882877,583.8271813186624
1.7089478521528867E12,1.8369565217391304,-6.423913043478261,2.891304347826087,1.0948784464452799,30.44225101974619,31.53712946619147,482.3271676691971,583.8287679944955
1.7089478521724182E12,1.826086956521739,-6.413043478260869,2.967391304347826,1.0911281217489388,30.443909817208034,31.53503793895697,482.32572523662157,583.8468705233181
1.70894785219195E12,1.8695652173913042,-6.467391304347826,2.891304347826087,1.0905511487187325,30.433668545921872,31.524219694640603,482.3217585470389,583.8426874688491
1.7089478522114814E12,1.9021739130434783,-6.5,2.8260869565217392,1.1033887986408233,30.413186003349548,31.51657480199037,482.3190900467742,583.8667039712315
1.7089478522310132E12,1.9021739130434783,-6.456521739130435,2.869565217391304,1.0966814871646748,30.43042307262696,31.527104559791635,482.3175754925699,583.8612948490733
1.7089478522505447E12,1.891304347826087,-6.489130434782608,2.9130434782608696,1.1054082042465454,30.422489693461625,31.52789789770817,482.31353668135847,583.8608621193007
1.7089478522700764E12,1.9130434782608696,-6.467391304347826,2.858695652173913,1.103172433754496,30.42054240948468,31.523714843239173,482.317214884426,583.850476604757
1.7089478522896082E12,1.891304347826087,-6.478260869565217,2.880434782608696,1.1090864073141107,30.41506116569772,31.524147573011827,482.3097142350333,583.8561742134302
1.7089478523091396E12,1.9130434782608696,-6.478260869565217,2.9130434782608696,1.1181737325398604,30.397102880132543,31.515276612672405,482.3100027215484,583.8496832668404
1.7089478523286714E12,1.9239130434782608,-6.478260869565217,2.891304347826087,1.1144234078435193,30.40900294888055,31.52342635672407,482.30315116681476,583.8540826861957
1.708947852348203E12,1.9456521739130435,-6.510869565217391,2.858695652173913,1.1166591783355688,30.456026250842363,31.572685429177934,482.3058917887082,583.8735555259652
1.7089478523677346E12,1.891304347826087,-6.478260869565217,2.9565217391304346,1.1342568557568617,30.453141385691332,31.587398241448195,482.3071178563974,583.8524238887339
1.708947852387266E12,1.9130434782608696,-6.456521739130435,2.967391304347826,1.1643315749563665,30.449679547510094,31.61401112246646,482.3063245184809,583.864612443997
1.7089478524067979E12,1.8804347826086956,-6.489130434782608,2.9239130434782608,1.158706087911855,30.354262632639724,31.51296872055158,482.30437723450393,583.8906483519851
1.7089478524263296E12,1.8804347826086956,-6.554347826086956,3.0,1.1278380307958165,30.31675938567631,31.444597416472128,482.3121663704117,583.905793894028
1.708947852445861E12,1.858695652173913,-6.510869565217391,2.9891304347826084,1.121419205834771,30.30687872253403,31.4282979283688,482.31505123556275,583.9056496507704
1.7089478524653928E12,1.934782608695652,-6.543478260869565,2.6956521739130435,0.9549624866202459,30.28783861253722,31.242801099157468,482.31079605946496,583.9471195873165
1.7089478524849243E12,1.9021739130434783,-6.489130434782608,2.6956521739130435,1.5472974237558157,31.053409701992244,32.60070712574806,482.30935362688945,583.9559184260271
1.708947852504456E12,1.858695652173913,-6.423913043478261,2.8043478260869565,1.9164880414590886,30.638926701417766,32.555414742876856,482.31418577601744,583.8596360516115
1.7089478525239875E12,1.891304347826087,-6.33695652173913,2.652173913043478,1.1507727087465178,30.120877041921265,31.271649750667784,482.316565789767,584.0682118020311
1.7089478525435193E12,1.934782608695652,-6.304347826086956,2.6630434782608696,1.1344010990144133,30.25249901443708,31.386900113451496,482.3104354513211,583.9572166153451
1.7089478525630508E12,1.8043478260869565,-6.391304347826087,3.2282608695652173,1.1336798827266554,30.256682068906077,31.390361951632734,482.3073342212837,583.9209394360709
1.7089478525825825E12,1.8478260869565217,-6.5,2.902173913043478,1.1383677885970818,30.266346367162033,31.404714155759116,482.30877665385924,583.9197133683817
1.7089478526021143E12,1.8152173913043477,-6.510869565217391,2.5869565217391304,1.137574450680548,30.272981557009405,31.410556007689955,482.3111566676088,583.9155303139127
1.7089478526216458E12,1.8369565217391304,-6.489130434782608,2.7282608695652173,1.127982274053368,30.29245439677887,31.42043667083224,482.30978635666213,583.9290170584937
1.7089478526411775E12,1.826086956521739,-6.467391304347826,2.8478260869565215,1.1266119631066278,30.29880110011114,31.425413063217768,482.3091372620031,583.9427201679612
1.708947852660709E12,1.8369565217391304,-6.521739130434782,2.793478260869565,1.126539841477852,30.303344762724016,31.429884604201867,482.310146964806,583.9631305889047
1.7089478526802407E12,1.8369565217391304,-6.565217391304348,2.7065217391304346,1.1207701111757888,30.320870318516533,31.44164042969232,482.3097142350333,583.977194306516
1.7089478526997722E12,1.8695652173913042,-6.576086956521739,2.608695652173913,1.1511333168903968,30.322889724122255,31.474023041012654,482.31418577601744,583.9888780103777
1.708947852719304E12,1.8804347826086956,-6.554347826086956,2.608695652173913,1.1732746569245645,30.339044968968032,31.512319625892598,482.31021908643476,583.9896713482942
1.7089478527388354E12,1.9021739130434783,-6.478260869565217,2.641304347826087,1.1893577801415658,30.327721873250233,31.5170796533918,482.30639664010965,583.9839016179922
1.7089478527583672E12,1.9239130434782608,-6.391304347826087,2.652173913043478,1.168658872682914,30.285963450189048,31.454622322871963,482.3047378426478,583.9772664281447
1.708947852777899E12,1.9021739130434783,-6.391304347826087,2.641304347826087,1.155893344389599,30.23829105356825,31.39418439795785,482.30964211340455,583.9611833049278
1.7089478527974304E12,1.891304347826087,-6.445652173913043,2.7282608695652173,1.1543787901853073,30.213913943042034,31.368292733227342,482.30214146401187,583.9758961171981
1.7089478528169622E12,1.858695652173913,-6.5,2.6630434782608696,1.1491860329134505,30.221053984290837,31.37024001720429,482.2994008421184,583.9708476031838
1.7089478528364937E12,1.891304347826087,-6.489130434782608,2.5869565217391304,1.1498351275724326,30.191484116492763,31.341319244065197,482.30084327469393,583.9863537533705
1.7089478528560254E12,1.9239130434782608,-6.478260869565217,2.652173913043478,1.1587782095406307,30.171722790208197,31.33050099974883,482.2960832471947,583.9816658475002
1.708947852875557E12,1.9565217391304348,-6.456521739130435,2.6739130434782608,1.1447866135581273,30.177204033995157,31.321990647553285,482.29925659886084,583.9876519426884
1.7089478528950886E12,1.9456521739130435,-6.5,2.641304347826087,1.1444260054142483,30.18722894039499,31.33165494580924,482.2999778151486,583.9840458612497
1.70894785291462E12,1.9130434782608696,-6.5,2.652173913043478,1.1399544644301491,30.19927325240055,31.3392277168307,482.3010596395802,583.9749585360239
1.7089478529341519E12,1.891304347826087,-6.489130434782608,2.6630434782608696,1.1522151413220336,30.20028295520341,31.352498096525444,482.30242995052697,583.9756076306829
1.7089478529536836E12,1.891304347826087,-6.478260869565217,2.6630434782608696,1.1592830609420612,30.187733791796422,31.347016852738484,482.3019250991255,583.9707754815549
1.708947852973215E12,1.9239130434782608,-6.478260869565217,2.684782608695652,1.1612303449190076,30.17251612812473,31.33374647304374,482.29774204465656,583.9837573747346
1.7089478529927468E12,1.9239130434782608,-6.456521739130435,2.630434782608696,1.167577048251277,30.169126411572268,31.336703459823546,482.3006269098076,583.9939986460207
1.7089478530122783E12,1.9239130434782608,-6.456521739130435,2.652173913043478,1.1519987764357063,30.24550321644583,31.397501992881537,482.2973814365127,583.9764730902283
1.70894785303181E12,1.9239130434782608,-6.456521739130435,2.652173913043478,1.1895741450278934,30.238218931939475,31.42779307696737,482.29507354439187,583.9667366703435
1.7089478530513416E12,1.9021739130434783,-6.467391304347826,2.6630434782608696,1.191088699232185,30.27189973257777,31.462988431809954,482.29601112556594,583.9367340727728
1.7089478530708733E12,1.9239130434782608,-6.445652173913043,2.6630434782608696,1.2035657410103966,30.180305264032516,31.383871005042913,482.2937032334451,583.9647172647378
1.7089478530904048E12,1.8695652173913042,-6.489130434782608,2.641304347826087,1.1805589414309194,30.130685583434772,31.311244524865693,482.29774204465656,583.9473359522028
1.7089478531099365E12,1.8804347826086956,-6.456521739130435,2.652173913043478,1.177601954651112,30.098086607228115,31.275688561879228,482.3003384232925,583.9800070500382
1.7089478531294683E12,1.891304347826087,-6.467391304347826,2.630434782608696,1.036604170394441,30.109770311089793,31.146374481484234,482.30098751795146,583.9819543340152
1.7089478531489998E12,1.9130434782608696,-6.489130434782608,2.608695652173913,1.47611337615411,30.63467152532,32.11078490147411,482.29290989552857,584.0722506132425
1.7089478531685315E12,1.891304347826087,-6.467391304347826,2.652173913043478,2.175260445506626,30.398545312708055,32.57380575821468,482.2942802064753,584.0547971790787
1.708947853188063E12,1.9239130434782608,-6.434782608695652,2.543478260869565,1.2490744887679206,29.868811949349876,31.117886438117797,482.2851207596208,584.150574702093
1.7089478532075947E12,1.9456521739130435,-6.478260869565217,2.4239130434782608,1.180703184688471,30.07522405090619,31.255927235594662,482.2913232196955,584.0269582303713
1.7089478532271262E12,1.8478260869565217,-6.434782608695652,2.9239130434782608,1.1637546019261602,30.101043594007923,31.264798195934084,482.2893038140898,584.0165005941988
1.708947853246658E12,1.8695652173913042,-6.521739130434782,2.684782608695652,1.1786116574539731,30.112150324839394,31.29076198229337,482.2952177876494,584.0067641743141
1.7089478532661895E12,1.858695652173913,-6.456521739130435,2.467391304347826,1.1729140487806855,30.13003648877579,31.302950537556477,482.2912510980667,584.0013550521559
1.7089478532857212E12,1.9021739130434783,-6.380434782608695,2.5543478260869565,1.1690194808267929,30.141431706122365,31.31045118694916,482.28649107056754,584.0350358527942
1.708947853305253E12,1.8804347826086956,-6.434782608695652,2.6956521739130435,1.1646921831002455,30.152033585552406,31.316725768652653,482.2881498680294,584.0579705307449
1.7089478533247844E12,1.8369565217391304,-6.510869565217391,2.6630434782608696,1.1694522105994476,30.180449507290067,31.349901717889516,482.2949293011343,584.0565280981693
1.7089478533443162E12,1.8695652173913042,-6.576086956521739,2.619565217391304,1.1656297642743307,30.19083502183378,31.356464786108113,482.28620258405243,584.042464380558
1.7089478533638477E12,1.9239130434782608,-6.532608695652174,2.5760869565217392,1.1751498192727352,30.21773638936715,31.392886208639887,482.2882941112869,584.033160690446
1.7089478533833794E12,1.9130434782608696,-6.510869565217391,2.467391304347826,1.199671173056504,30.233458904440273,31.433130077496777,482.2864189489388,584.0388582991193
1.708947853402911E12,1.9130434782608696,-6.478260869565217,2.5,1.228952554339475,30.233026174667618,31.461978729007093,482.2880056247718,584.0636681394182
1.7089478534224426E12,1.891304347826087,-6.445652173913043,2.5760869565217392,1.2098403227138905,30.215644862132653,31.425485184846544,482.2884383545445,584.0651826936224
1.708947853441974E12,1.9130434782608696,-6.445652173913043,2.5760869565217392,1.189718388285445,30.197109603537275,31.38682799182272,482.28266862424243,584.06179297707
1.7089478534615059E12,1.9130434782608696,-6.445652173913043,2.652173913043478,1.1747892111288563,30.169054289943492,31.34384350107235,482.2833177189014,584.0581147740024
1.7089478534810376E12,1.9021739130434783,-6.532608695652174,2.5869565217391304,1.1791886304841794,30.171939155094524,31.351127785578704,482.27697101556913,584.0466474350271
1.708947853500569E12,1.9239130434782608,-6.532608695652174,2.4891304347826084,1.1725534406368066,30.15967847820264,31.332231918839447,482.27812496162954,584.045060759194
1.7089478535201008E12,1.9130434782608696,-6.489130434782608,2.5652173913043477,1.1685867510541381,30.15232207206751,31.32090882312165,482.2729322043577,584.0465753133983
1.7089478535396323E12,1.9782608695652173,-6.445652173913043,2.510869565217391,1.149690884314881,30.163645167785308,31.31333605210019,482.2859862191661,584.0612160040398
1.708947853559164E12,1.934782608695652,-6.467391304347826,2.543478260869565,1.1543787901853073,30.162491221724895,31.316870011910204,482.2911068548092,584.0533547465033
1.7089478535786956E12,1.9130434782608696,-6.510869565217391,2.5978260869565215,1.155172128101841,30.170857330662887,31.32602945876473,482.2934868685588,584.0387140558618
1.7089478535982273E12,1.9021739130434783,-6.510869565217391,2.608695652173913,1.1499793708299841,30.194368981643795,31.34434835247378,482.29117897643795,584.0223424461296
1.7089478536177588E12,1.8804347826086956,-6.489130434782608,2.543478260869565,1.1606533718888012,30.180088899146188,31.34074227103499,482.2893038140898,584.0018599035574
1.7089478536372905E12,1.9021739130434783,-6.510869565217391,2.5543478260869565,1.155821222760823,30.184127710357632,31.339948933118457,482.2910347331804,584.0105866206392
1.7089478536568223E12,1.8804347826086956,-6.521739130434782,2.6630434782608696,1.1608697367751286,30.177204033995157,31.338073770770286,482.2899529087488,584.0304921901813
1.7089478536763538E12,1.9239130434782608,-6.510869565217391,2.5543478260869565,1.1671443184786223,30.161120910778155,31.32826522925678,482.29514566602063,584.0507583678673
1.7089478536958855E12,1.9239130434782608,-6.489130434782608,2.510869565217391,1.1590666960557339,30.164005775929187,31.323072471984922,482.2949293011343,584.073693045818
1.708947853715417E12,1.9239130434782608,-6.478260869565217,2.5652173913043477,1.1605091286312497,30.207567239709764,31.368076368341015,482.2926935306422,584.0690051399475
1.7089478537349487E12,1.9456521739130435,-6.445652173913043,2.543478260869565,1.1467338975350736,30.290579234430698,31.437313131965773,482.2945686929904,584.0578262874874
1.7089478537544802E12,1.9565217391304348,-6.456521739130435,2.4782608695652173,1.174572846242529,30.297070181020523,31.471643027263053,482.2878613815143,584.053426868132
1.708947853774012E12,1.891304347826087,-6.478260869565217,2.5652173913043477,1.1815686442337805,30.260648758488745,31.442217402722527,482.2909626115516,584.0894876825199
1.7089478537935435E12,1.858695652173913,-6.521739130434782,2.652173913043478,1.1574800202226663,30.189176224371938,31.346656244594605,482.2887268410596,584.1030465487297
1.7089478538130752E12,1.8478260869565217,-6.521739130434782,2.6630434782608696,1.1512775601479484,30.157875437483245,31.309152997631195,482.29341474693,584.1165332933108
1.708947853832607E12,1.9565217391304348,-6.532608695652174,2.652173913043478,1.0952390545891588,30.156721491422836,31.251960546011993,482.2913232196955,584.1208605910374
1.7089478538521384E12,1.9782608695652173,-6.521739130434782,2.608695652173913,0.9547461217339185,30.23504558027334,31.18979170200726,482.29002503037754,584.1699032986049
1.7089478538716702E12,1.9130434782608696,-6.510869565217391,2.619565217391304,2.023588660191138,30.786703918779367,32.810292578970504,482.2853371245071,584.2058919913641
1.7089478538912017E12,1.8804347826086956,-6.521739130434782,2.5543478260869565,1.6318239726810424,29.983124730959503,31.614948703640547,482.3013481260953,584.1376649305422
1.7089478539107334E12,1.891304347826087,-6.478260869565217,2.3260869565217392,1.1419738700358713,30.078613767458652,31.220587637494525,482.2984632609443,584.2267351420802
1.708947853930265E12,1.8804347826086956,-6.4021739130434785,2.7391304347826084,1.131804720378485,30.144532936159724,31.27633765653821,482.2911068548092,584.1551904863346
1.7089478539497966E12,1.8152173913043477,-6.456521739130435,2.934782608695652,1.1250974089023362,30.164294262444294,31.28939167134663,482.2948571795055,584.1223751452417
1.7089478539693284E12,1.9021739130434783,-6.413043478260869,2.5217391304347827,1.1188949488276183,30.19004168391725,31.308936632744867,482.29615536882346,584.0871797903991
1.7089478539888599E12,1.9021739130434783,-6.413043478260869,2.532608695652174,1.1080045828824738,30.216510321677966,31.324514904560438,482.29586688230836,584.0804003572941
1.7089478540083916E12,1.891304347826087,-6.413043478260869,2.7391304347826084,1.1151446241312772,30.240310459173976,31.35545508330525,482.29601112556594,584.0825640061574
1.708947854027923E12,1.858695652173913,-6.510869565217391,2.7391304347826084,1.1080767045112496,30.266057880646933,31.37413458515818,482.2928377738998,584.06179297707
1.7089478540474548E12,1.8478260869565217,-6.5978260869565215,2.6956521739130435,1.115216745760053,30.287910734165997,31.40312747992605,482.2988238690882,584.0498207866932
1.7089478540669863E12,1.858695652173913,-6.5978260869565215,2.717391304347826,1.1114664210637117,30.302479303178707,31.413945724242417,482.3048820859054,584.0498207866932
1.708947854086518E12,1.8804347826086956,-6.608695652173913,2.510869565217391,1.1501236140875357,30.305003560185856,31.455127174273393,482.30084327469393,584.0763615460827
1.7089478541060496E12,1.8804347826086956,-6.521739130434782,2.5760869565217392,1.171399494576394,30.327144900220027,31.498544394796422,482.30228570726945,584.0864585741114
1.7089478541255813E12,1.9021739130434783,-6.434782608695652,2.630434782608696,1.191737793891167,30.32916430582575,31.520902099716917,482.30242995052697,584.0721784916137
1.708947854145113E12,1.9456521739130435,-6.391304347826087,2.5978260869565215,1.1460126812473157,30.313946642154054,31.45995932340137,482.3002663016637,584.0425365021869
1.7089478541646445E12,1.9021739130434783,-6.4021739130434785,2.75,1.1208422328045646,30.288631950453755,31.409474183258318,482.2959390039372,584.0263091357123
1.7089478541841763E12,1.8804347826086956,-6.489130434782608,2.7391304347826084,1.106201542163079,30.28098705780352,31.3871885999666,482.29867962583063,584.0053217417386
1.7089478542037078E12,1.8369565217391304,-6.543478260869565,2.630434782608696,1.1209143544333404,30.293391977952957,31.414306332386296,482.29629961208104,583.9998404979516
1.7089478542232395E12,1.8369565217391304,-6.467391304347826,2.608695652173913,1.1085815559126801,30.27983311174311,31.388414667655788,482.30185297749676,584.0033744577617
1.708947854242771E12,1.891304347826087,-6.456521739130435,2.6630434782608696,1.0887481079993377,30.28394404458333,31.372692152582665,482.3064687617384,584.0074853906018
1.7089478542623027E12,1.9130434782608696,-6.434782608695652,2.6739130434782608,1.0922820678093514,30.28531435553007,31.37759642333942,482.2970929499976,584.0144090669643
1.7089478542818342E12,1.8804347826086956,-6.510869565217391,2.684782608695652,1.0787953232282785,30.3108454121167,31.389640735344976,482.3163494248807,583.9943592541647
1.708947854301366E12,1.8478260869565217,-6.510869565217391,2.717391304347826,1.0864402158785125,30.30788842533689,31.394328641215402,482.3084160457154,583.9893107401504
1.7089478543208977E12,1.8695652173913042,-6.5,2.684782608695652,1.1005039334897917,30.304210222269326,31.404714155759116,482.3065408833672,583.9740209548498
1.7089478543404292E12,1.858695652173913,-6.510869565217391,2.6739130434782608,1.094517838301401,30.320293345486327,31.414811183787727,482.3131039515858,583.9831804017044
1.708947854359961E12,1.8478260869565217,-6.467391304347826,2.760869565217391,1.0898299324309746,30.324620643212874,31.414450575643848,482.31447426253254,583.9911859024985
1.7089478543794924E12,1.8695652173913042,-6.456521739130435,2.717391304347826,1.0955996627330378,30.320726075258982,31.416325737992018,482.3144021409038,583.9924840918164
1.7089478543990242E12,1.9130434782608696,-6.467391304347826,2.6630434782608696,1.1064179070494065,30.303416884352792,31.409834791402197,482.3163494248807,583.9890222536352
1.7089478544185557E12,1.891304347826087,-6.434782608695652,2.7391304347826084,1.099061500914276,30.318273939880605,31.41733544079488,482.3139694111311,583.9858489019691
1.7089478544380874E12,1.8804347826086956,-6.423913043478261,2.75,1.092786919210782,30.361907525289958,31.45469444450074,482.3252203852201,583.9709197248125
1.708947854457619E12,1.9021739130434783,-6.478260869565217,2.760869565217391,1.084565053530342,30.417513301076095,31.502078354606436,482.3193785332893,583.9562790341711
1.7089478544771506E12,1.8695652173913042,-6.467391304347826,2.7391304347826084,1.1054803258753212,30.45508866966828,31.5605689955436,482.3198112630619,583.9303873694405
1.7089478544966824E12,1.891304347826087,-6.489130434782608,2.717391304347826,1.1284150038260228,30.42198484206019,31.550399845886215,482.324931898705,583.9330558697052
1.7089478545162139E12,1.9021739130434783,-6.5,2.75,1.0984845278840696,30.33890072571048,31.43738525359455,482.32868222340136,583.9591638993221
1.7089478545357456E12,1.9021739130434783,-6.5,2.7391304347826084,1.0901184189460777,30.314667858441815,31.404786277387892,482.3287543450301,583.9696936571233
1.708947854555277E12,1.9021739130434783,-6.5,2.7065217391304346,1.0626400783825014,30.30839327673832,31.371033355120822,482.32897070991646,583.9696215354945
1.7089478545748088E12,1.9130434782608696,-6.434782608695652,2.75,0.8997894406067659,30.335078279385364,31.23486771999213,482.3265185745381,584.0192412160923
1.7089478545943403E12,1.8804347826086956,-6.445652173913043,2.793478260869565,1.763301701939309,31.05066908009876,32.81397078203807,482.32810525037115,583.9925562134453
1.708947854613872E12,1.9130434782608696,-6.456521739130435,2.760869565217391,1.5134723798599696,30.41138296263015,31.92485534249012,482.32810525037115,583.8206903720726
1.7089478546334036E12,1.9130434782608696,-6.456521739130435,2.6630434782608696,1.0857911212195304,30.19076290020501,31.276554021424538,482.33221618321136,584.0671299775994
1.7089478546529353E12,1.891304347826087,-6.423913043478261,2.8369565217391304,1.0813195802354314,30.32916430582575,31.41048388606118,482.33149496692363,583.954043263679
1.708947854672467E12,1.891304347826087,-6.478260869565217,3.0217391304347827,1.0804541206901217,30.36068145760077,31.44113557829089,482.3312786020373,583.9344261806519
1.7089478546919985E12,1.891304347826087,-6.467391304347826,2.8478260869565215,1.0851420265605483,30.361979646918734,31.44712167347928,482.3379859135134,583.9196412467529
1.7089478547115303E12,1.9021739130434783,-6.423913043478261,2.641304347826087,1.0816801883793103,30.38159672994575,31.463276918325057,482.333947102302,583.9108424080423
1.7089478547310618E12,1.9456521739130435,-6.4021739130434785,2.9239130434782608,1.0953832978467104,30.395444082670704,31.490827380517413,482.3387071298012,583.9193527602379
1.7089478547505935E12,1.858695652173913,-6.423913043478261,3.032608695652174,1.0943014734150736,30.414412071038736,31.50871354445381,482.3369040890818,583.9106981647848
1.708947854770125E12,1.8695652173913042,-6.532608695652174,2.891304347826087,1.1017300011789801,30.433812789179424,31.535542790358402,482.33748106211203,583.910914529671
1.7089478547896567E12,1.8804347826086956,-6.576086956521739,2.9239130434782608,1.116947664850672,30.436264924557797,31.55321258940847,482.33704833233935,583.9178382060335
1.7089478548091882E12,1.9239130434782608,-6.543478260869565,2.684782608695652,1.1422623565509744,30.45811777807686,31.600380134627837,482.3387071298012,583.9562790341711
1.70894785482872E12,1.9130434782608696,-6.467391304347826,2.7717391304347827,1.1754383057878384,30.467132981673835,31.642571287461674,482.34036592726306,583.9396189379238
1.7089478548482517E12,1.9239130434782608,-6.445652173913043,2.858695652173913,1.1687309943116897,30.496919214358236,31.665650208669927,482.328465858515,583.9267091663729
1.7089478548677832E12,1.9456521739130435,-6.391304347826087,2.967391304347826,1.1267562063641794,30.47542696898305,31.602183175347232,482.3239221959022,583.8963459606583
1.708947854887315E12,1.9021739130434783,-6.4021739130434785,2.9891304347826084,1.098340284626518,30.45732444016033,31.555664724786848,482.3258694798791,583.8863931758873
1.7089478549068464E12,1.8695652173913042,-6.467391304347826,2.9456521739130435,1.07345832269887,30.44347708743538,31.51693541013425,482.33113435877976,583.8832198242211
1.7089478549263782E12,1.891304347826087,-6.532608695652174,2.869565217391304,1.0680492005406859,30.441024952057003,31.509074152597687,482.3366877241955,583.8870422705463
1.7089478549459097E12,1.858695652173913,-6.369565217391304,2.9130434782608696,1.0627122000112772,30.44210677648864,31.504818976499916,482.3356780213926,583.913799394822
1.7089478549654414E12,1.891304347826087,-6.445652173913043,2.8478260869565215,1.0632891730414835,30.44499164163967,31.508280814681154,482.33171133180997,583.9114915027012
1.708947854984973E12,1.8804347826086956,-6.380434782608695,2.9565217391304346,1.0570145913379898,30.45956021065238,31.51657480199037,482.32284037147053,583.8933168522498
1.7089478550045046E12,1.891304347826087,-6.391304347826087,3.032608695652174,1.0513169826647024,30.472974833604678,31.52429181626938,482.3273119124546,583.8985817311504
1.7089478550240364E12,1.934782608695652,-6.445652173913043,2.858695652173913,1.0539854829294066,30.473046955233453,31.52703243816286,482.3350289267336,583.8814167835018
1.7089478550435679E12,1.9239130434782608,-6.456521739130435,2.934782608695652,1.0526151719826666,30.49057251102597,31.543187683008636,482.3338749806732,583.8767288776313
1.7089478550630996E12,1.9130434782608696,-6.456521739130435,2.967391304347826,1.0472060498244822,30.48249488860308,31.529700938427563,482.33055738574956,583.8757191748284
1.708947855082631E12,1.934782608695652,-6.423913043478261,2.9239130434782608,1.0485042391424464,30.49879437670641,31.547298615848856,482.33618287279404,583.874276742253
1.7089478551021628E12,1.9021739130434783,-6.391304347826087,2.967391304347826,1.0403544950907821,30.520142378824044,31.560496873914825,482.3340192239308,583.8601409030128
1.7089478551216943E12,1.9130434782608696,-6.413043478260869,2.9239130434782608,1.043527846756917,30.57502693832242,31.618554785079336,482.3363992376804,583.8313643731314
1.708947855141226E12,1.891304347826087,-6.445652173913043,2.902173913043478,1.0746843903880585,30.61303503668726,31.68771942707532,482.33264891298404,583.797683572493
1.7089478551607576E12,1.9239130434782608,-6.478260869565217,2.9565217391304346,1.0808147288340009,30.613684131346243,31.694498860180243,482.33849076491487,583.7992702483261
1.7089478551802893E12,1.9021739130434783,-6.489130434782608,2.891304347826087,1.0460521037640695,30.501679241857442,31.54773134562151,482.32695130431074,583.8288401161242
1.708947855199821E12,1.9130434782608696,-6.5,2.880434782608696,1.0483599958848948,30.47174876591549,31.520108761800383,482.32810525037115,583.8310758866163
1.7089478552193525E12,1.9021739130434783,-6.489130434782608,2.967391304347826,1.0293920075168619,30.4797542667096,31.509146274226463,482.3265185745381,583.8273976835487
1.7089478552388843E12,1.891304347826087,-6.467391304347826,2.891304347826087,0.8685607753468485,30.48263913186063,31.35119990720748,482.330413142492,583.882931337706
1.7089478552584158E12,1.891304347826087,-6.423913043478261,2.902173913043478,1.6669472058948525,31.2507344783228,32.917681684217655,482.31324819484337,583.8381438062363
1.7089478552779475E12,1.9021739130434783,-6.445652173913043,2.891304347826087,1.5057553655809601,30.699076139816782,32.20483150539774,482.3255088717352,583.6580560991831
1.708947855297479E12,1.9021739130434783,-6.391304347826087,2.782608695652174,1.0783625934556238,30.245431094817057,31.32379368827268,482.32897070991646,583.9655106026544
1.7089478553170107E12,1.9782608695652173,-6.413043478260869,2.793478260869565,1.0423739006965043,30.495765268297827,31.53813916899433,482.32247976332667,583.8294892107832
1.7089478553365425E12,1.8152173913043477,-6.434782608695652,3.4565217391304346,1.0429508737267106,30.524974527952022,31.567925401678732,482.32298461472806,583.8014338971894
1.708947855356074E12,1.9456521739130435,-6.5,2.9782608695652173,1.0478551444834643,30.540552799767593,31.588407944251056,482.32572523662157,583.7860719902602
1.7089478553756057E12,1.9565217391304348,-6.510869565217391,2.5652173913043477,1.0513891042934782,30.562622018172984,31.61401112246646,482.31973914143316,583.7852065307148
1.7089478553951372E12,1.9130434782608696,-6.445652173913043,2.9565217391304346,1.0423739006965043,30.597168278356587,31.63954217905309,482.3012038828378,583.7942217343118
1.708947855414669E12,1.9130434782608696,-6.380434782608695,3.108695652173913,1.0492254554302043,30.606111360324785,31.65533681575499,482.3071899780262,583.7885241256386
1.7089478554342004E12,1.891304347826087,-6.445652173913043,2.9456521739130435,1.0508842528920477,30.64541764800759,31.696301900899638,482.3091372620031,583.775181624315
1.7089478554537322E12,1.8478260869565217,-6.521739130434782,3.0652173913043477,1.060404307890452,30.663448055201542,31.723852363091993,482.3069014915111,583.7842689495408
1.7089478554732637E12,1.9021739130434783,-6.5978260869565215,2.9456521739130435,1.0808868504627767,30.679891786562422,31.760778637025197,482.3070457347686,583.7902550447292
1.7089478554927954E12,1.9456521739130435,-6.58695652173913,2.7065217391304346,1.110384596632075,30.692513071598185,31.80289766823026,482.3035117749586,583.813478209195
1.7089478555123271E12,1.934782608695652,-6.478260869565217,2.8260869565217392,1.1188228271988425,30.71725079026828,31.83607361746712,482.301780855868,583.8011454106743
1.7089478555318586E12,1.934782608695652,-6.4021739130434785,2.967391304347826,1.0727371064111122,30.715519871177662,31.788256977588773,482.3076948294276,583.7775616380646
1.7089478555513904E12,1.934782608695652,-6.380434782608695,2.869565217391304,1.0472060498244822,30.68558939523571,31.73279544506019,482.3125269785556,583.7693397723842
1.7089478555709219E12,1.9239130434782608,-6.423913043478261,2.934782608695652,1.0292477642593103,30.67715116466894,31.706398928928248,482.30639664010965,583.7715755428762
1.7089478555904536E12,1.8369565217391304,-6.510869565217391,2.9456521739130435,1.0350896161901495,30.67044385319279,31.70553346938294,482.29629961208104,583.7714312996187
1.708947855609985E12,1.8804347826086956,-6.456521739130435,2.858695652173913,1.028670791229104,30.687464557583876,31.71613534881298,482.3051705724205,583.7653730828015
1.7089478556295168E12,1.9021739130434783,-6.478260869565217,2.760869565217391,1.0288871561154314,30.706071937808034,31.734959093923464,482.29983357189104,583.7754701108302
1.7089478556490483E12,1.891304347826087,-6.445652173913043,2.8478260869565215,1.0256416828205208,30.709461654360496,31.735103337181016,482.2979584095429,583.7803022599581
1.70894785566858E12,1.8804347826086956,-6.467391304347826,2.891304347826087,1.031411413122584,30.7189817093589,31.750393122481483,482.29363111181635,583.7927793017363
1.7089478556881118E12,1.891304347826087,-6.478260869565217,2.8369565217391304,1.0371090217958716,30.732396332311197,31.769505354107068,482.29557839579326,583.7676809749223
1.7089478557076433E12,1.8804347826086956,-6.489130434782608,2.9130434782608696,1.0388399408864906,30.731530872765887,31.770370813652377,482.2943523281041,583.7543384735989
1.7089478557467065E12,1.8695652173913042,-6.5,2.7391304347826084,1.0428787520979348,30.714293803488474,31.757172555586408,482.29745355814146,583.7591706227267
1.7089478557662383E12,1.8804347826086956,-6.467391304347826,2.717391304347826,1.031772021266463,30.725039926176066,31.75681194744253,482.3035838965874,583.7759749622315
1.7089478557857698E12,1.8478260869565217,-6.434782608695652,2.7391304347826084,1.0387678192577148,30.72172233125238,31.760490150510094,482.30185297749676,583.7734507052244
1.7089478558053015E12,1.8369565217391304,-6.413043478260869,2.793478260869565,1.0184295199429418,30.81526408377458,31.83369360371752,482.2999778151486,583.7578724334088
1.708947855824833E12,1.8369565217391304,-6.445652173913043,2.8260869565217392,1.0451145225899843,30.852478844222887,31.89759336681287,482.3027184370421,583.7209461594756
1.7089478558443647E12,1.8478260869565217,-6.456521739130435,2.7717391304347827,1.0696358763737532,30.863297088539255,31.932932964913007,482.2842553000755,583.7071709283795
1.7089478558638965E12,1.8369565217391304,-6.5,2.75,1.051461225922254,30.77530870143279,31.826769927355045,482.29774204465656,583.726643768149
1.708947855883428E12,1.8478260869565217,-6.5,2.7065217391304346,1.03696477853832,30.707298005497222,31.74426278403554,482.2948571795055,583.740779607389
1.7089478559029597E12,1.858695652173913,-6.532608695652174,2.782608695652174,1.0327096024405482,30.70390828894476,31.736617891385308,482.2970208283688,583.7420777967069
1.7089478559224912E12,1.891304347826087,-6.543478260869565,2.7065217391304346,0.918685307346023,30.712202276253972,31.630887583599996,482.29687658511125,583.7621276095066
1.708947855942023E12,1.8804347826086956,-6.521739130434782,2.641304347826087,1.3079978594777417,31.251311451353008,32.55930931083075,482.2918280710969,583.8188873313532
1.7089478559615544E12,1.8695652173913042,-6.456521739130435,2.6630434782608696,1.9428124359622523,31.19498445927912,33.13779689524137,482.28944805734733,583.7469099458349
1.7089478559810862E12,1.8695652173913042,-6.413043478260869,2.5760869565217392,1.0938687436424188,30.523387852118955,31.617256595761372,482.29319838204367,583.894831406454
1.7089478560006177E12,1.9239130434782608,-6.413043478260869,2.4565217391304346,1.0332865754707545,30.723020520570344,31.7563070960411,482.28613046242367,583.768762799354
1.7089478560201494E12,1.7934782608695652,-6.413043478260869,3.0652173913043477,1.0254253179341934,30.740618197991637,31.76604351592583,482.28822198965815,583.7406353641314
1.7089478560396812E12,1.8478260869565217,-6.510869565217391,2.7717391304347827,1.036315683879338,30.75360009117128,31.789915775050616,482.28663531382506,583.7148879426585
1.7089478560592126E12,1.8804347826086956,-6.445652173913043,2.4239130434782608,1.0323489942966693,30.76708683575235,31.79943583004902,482.29391959833146,583.7187825106123
1.7089478560787444E12,1.8804347826086956,-6.413043478260869,2.608695652173913,1.0211701418364219,30.783963296885887,31.805133438722308,482.29146746295305,583.7196479701577
1.708947856098276E12,1.8043478260869565,-6.467391304347826,2.75,1.0226125744119376,30.79196879768,31.814581372091936,482.28605834079485,583.7303940928452
1.7089478561178076E12,1.8478260869565217,-6.5,2.7391304347826084,1.0201604390335608,30.82932780138586,31.84948824041942,482.2937753550739,583.7329183498524
1.708947856137339E12,1.8478260869565217,-6.543478260869565,2.6630434782608696,1.032781724069324,30.83942482941447,31.872206553483792,482.28555348939346,583.7368129178063
1.7089478561568708E12,1.8804347826086956,-6.576086956521739,2.5217391304347827,1.0500187933467382,30.83408782888506,31.884106622231798,482.2814425565532,583.7686185560964
1.7089478561764023E12,1.891304347826087,-6.554347826086956,2.5217391304347827,1.0647316056169993,30.833871463998733,31.89860306961573,482.2844716649618,583.7787877057538
1.708947856195934E12,1.8695652173913042,-6.510869565217391,2.5760869565217392,1.077641377167866,30.848944884412873,31.926586261580738,482.28764501662795,583.7810234762459
1.7089478562154658E12,1.891304347826087,-6.445652173913043,2.5652173913043477,1.084565053530342,30.855219466116367,31.939784519646707,482.28396681356037,583.7559251494318
1.7089478562349973E12,1.8695652173913042,-6.423913043478261,2.5760869565217392,1.0614861323220888,30.83668420752099,31.898170339843077,482.2862747056812,583.7412123371616
1.708947856254529E12,1.826086956521739,-6.423913043478261,2.641304347826087,1.0488648472863253,30.81317255654008,31.862037403826406,482.2865631921963,583.7377504989804
1.7089478562740605E12,1.8152173913043477,-6.467391304347826,2.5652173913043477,1.0558606452775772,30.78937241904407,31.845233064321647,482.2783413265159,583.735947458261
1.7089478562935923E12,1.8478260869565217,-6.478260869565217,2.532608695652174,1.0461963470216211,30.79968581195901,31.84588215898063,482.28194740795465,583.7203691864454
1.7089478563131238E12,1.8369565217391304,-6.489130434782608,2.5652173913043477,1.0465569551655,30.795286392603685,31.841843347769185,482.28555348939346,583.7155370373174
1.7089478563326555E12,1.8804347826086956,-6.521739130434782,2.532608695652174,1.0309065617211535,30.805455542261072,31.836362103982225,482.2797116374626,583.7235425381116
1.708947856352187E12,1.8478260869565217,-6.521739130434782,2.532608695652174,1.022828939298265,30.821971395250728,31.844800334548992,482.2909626115516,583.7205855513317
1.7089478563717188E12,1.8478260869565217,-6.478260869565217,2.630434782608696,1.0247762232752113,30.82312534131114,31.84790156458635,482.2871401652265,583.7074594148945
1.7089478563912505E12,1.8695652173913042,-6.478260869565217,2.5543478260869565,1.0292477642593103,30.81814894892561,31.84739671318492,482.28591409753733,583.7233261732252
1.708947856410782E12,1.8369565217391304,-6.478260869565217,2.5760869565217392,1.0297526156607408,30.821899273621952,31.851651889282692,482.28735653011285,583.7083969960686
1.7089478564303137E12,1.8804347826086956,-6.478260869565217,2.5652173913043477,1.039344792287921,30.81627378657744,31.85561857886536,482.2922608008696,583.7254898220885
1.7089478564498452E12,1.8695652173913042,-6.5,2.5760869565217392,1.0354502243340284,30.814254380971718,31.849704605305746,482.29557839579326,583.7226049569375
1.708947856469377E12,1.8478260869565217,-6.467391304347826,2.510869565217391,1.039056305772818,30.839641194300796,31.878697500073613,482.2970929499976,583.7451790267443
1.7089478564889084E12,1.891304347826087,-6.489130434782608,2.467391304347826,1.020448925548664,30.90584884951697,31.926297775065635,482.29146746295305,583.7353704852308
1.7089478565084402E12,1.8695652173913042,-6.456521739130435,2.5760869565217392,1.0566539831941109,30.923807135082146,31.980461118276256,482.29363111181635,583.7081806311824
1.7089478565279717E12,1.8804347826086956,-6.445652173913043,2.5652173913043477,1.079011688114606,30.908877957925558,31.987889646040163,482.29341474693,583.7013290764486
1.7089478565475034E12,1.891304347826087,-6.445652173913043,2.5543478260869565,1.0485763607712222,30.815336205403355,31.863912566174577,482.2909626115516,583.7229655650814
1.7089478565670352E12,1.858695652173913,-6.456521739130435,2.510869565217391,1.0398496436893516,30.76968321438828,31.80953285807763,482.2970208283688,583.7419335534494
1.7089478565865667E12,1.858695652173913,-6.434782608695652,2.543478260869565,1.0373975083109748,30.758432240299257,31.79582974861023,482.2968044634825,583.7472705539788
1.7089478566060984E12,1.8804347826086956,-6.467391304347826,2.5543478260869565,0.8491600572061607,30.815552570289682,31.66471262749584,482.2902413952639,583.7940053694255
1.70894785662563E12,1.8804347826086956,-6.478260869565217,2.5760869565217392,1.4303882635102587,31.328193107628003,32.75858137113826,482.29557839579326,583.8284073863515
1.7089478566451616E12,1.891304347826087,-6.478260869565217,2.510869565217391,2.0005818606116605,30.975518342914384,32.976100203526045,482.29276565227104,583.7797974085566
1.708947856664693E12,1.8804347826086956,-6.467391304347826,2.4130434782608696,1.0817523100080861,30.565867491467895,31.64761980147598,482.2883662329157,583.8956968659994
1.7089478566842249E12,1.934782608695652,-6.489130434782608,2.467391304347826,1.0402102518332306,30.7440079145441,31.78421816637733,482.2903856385214,583.7766240568906
1.7089478567037563E12,1.7826086956521738,-6.532608695652174,2.75,1.045547252362639,30.757061929352517,31.802609181715155,482.28764501662795,583.7631373123095
1.708947856723288E12,1.8804347826086956,-6.532608695652174,2.4891304347826084,1.036604170394441,30.769466849501953,31.806071019896393,482.28634682730996,583.7389765666695
1.7089478567428198E12,1.891304347826087,-6.467391304347826,2.391304347826087,1.0378302380836295,30.79009363533183,31.827923873415457,482.29319838204367,583.7500832975011
1.7089478567623513E12,1.9021739130434783,-6.4021739130434785,2.4891304347826084,1.0280216965701219,30.80242643385249,31.83044813042261,482.28432742170423,583.7677530965511
1.708947856781883E12,1.8478260869565217,-6.423913043478261,2.543478260869565,1.03696477853832,30.807835556010673,31.844800334548992,482.2865631921963,583.8006405592729
1.7089478568014146E12,1.8369565217391304,-6.478260869565217,2.543478260869565,1.0406429816058853,30.830625990703822,31.871268972309707,482.2815867998108,583.7931399098802
1.7089478568209463E12,1.8804347826086956,-6.576086956521739,2.543478260869565,1.0416526844087464,30.84267030270938,31.884322987118125,482.2783413265159,583.7922023287061
1.7089478568404778E12,1.9021739130434783,-6.565217391304348,2.5,1.0624958351249498,30.849593979071855,31.912089814196804,482.2818752863259,583.796745991319
1.7089478568600095E12,1.8695652173913042,-6.532608695652174,2.4456521739130435,1.0853583914468756,30.85947464221414,31.944833033661013,482.2797837590914,583.8108097089303
1.7089478568795413E12,1.9130434782608696,-6.521739130434782,2.391304347826087,1.1167312999643446,30.845483046231635,31.962214346195978,482.2848322731057,583.8305710352148
1.7089478568990728E12,1.9130434782608696,-6.489130434782608,2.4565217391304346,1.1043263798149086,30.838415126611608,31.942741506426515,482.2878613815143,583.8299219405559
1.7089478569186045E12,1.9239130434782608,-6.456521739130435,2.4891304347826084,1.067688592396807,30.81302831328253,31.880716905679336,482.27358129901666,583.8193200611258
1.708947856938136E12,1.891304347826087,-6.467391304347826,2.5652173913043477,1.059322483458815,30.79485366283103,31.854176146289845,482.2806492186367,583.8313643731314
1.7089478569576677E12,1.8695652173913042,-6.510869565217391,2.5217391304347827,1.0561491317926803,30.801344609420852,31.85749374121353,482.2851207596208,583.8284795079803
1.7089478569771992E12,1.891304347826087,-6.456521739130435,2.4891304347826084,1.0543460910732856,30.798243379383493,31.852589470456778,482.2994008421184,583.8309316433587
1.708947856996731E12,1.9239130434782608,-6.456521739130435,2.5,1.0498024284604108,30.797161554951856,31.846963983412266,482.2895201789761,583.8395862388118
1.7089478570162625E12,1.9130434782608696,-6.467391304347826,2.543478260869565,1.0411478330073158,30.80653736669271,31.847685199700024,482.2818031646971,583.8637469844517
1.7089478570357942E12,1.891304347826087,-6.5,2.5217391304347827,1.0315556563801356,30.814326502600494,31.84588215898063,482.2825965026136,583.8740603773666
1.708947857055326E12,1.8804347826086956,-6.489130434782608,2.5,1.0345126431599432,30.80754706949557,31.842059712655512,482.2825965026136,583.8836525539938
1.7089478570748574E12,1.8804347826086956,-6.467391304347826,2.5543478260869565,1.0394890355454727,30.80632100180638,31.845810037351853,482.27899042117485,583.8747815936543
1.7089478570943892E12,1.891304347826087,-6.5,2.5217391304347827,1.044898157703657,30.799613690330233,31.84451184803389,482.28014436723527,583.8659106333149
1.7089478571139207E12,1.8695652173913042,-6.510869565217391,2.5217391304347827,1.037325386682199,30.804373717829435,31.841699104511633,482.2812983132957,583.8828592160772
1.7089478571334524E12,1.8478260869565217,-6.478260869565217,2.532608695652174,1.0391284274015937,30.79968581195901,31.8388142393606,482.29031351689264,583.8824264863047
1.708947857152984E12,1.8478260869565217,-6.478260869565217,2.5760869565217392,1.0440326981583474,30.786848162036918,31.830880860195265,482.27927890768996,583.9156024355415
1.7089478571725156E12,1.9130434782608696,-6.510869565217391,2.5217391304347827,1.0365320487656653,30.828895071613204,31.865427120378868,482.2800722456065,583.8994471906957
1.708947857192047E12,1.9021739130434783,-6.5,2.532608695652174,1.0446096711885537,30.894814240314275,31.93942391150283,482.27415827204686,583.8537941996806
1.7089478572115789E12,1.8804347826086956,-6.521739130434782,2.543478260869565,1.0544903343308372,30.909022201183106,31.963512535513942,482.27661040742527,583.8338886301385
1.7089478572311106E12,1.858695652173913,-6.5,2.5543478260869565,1.0781462285692964,30.894237267284073,31.972383495853368,482.2803607321216,583.8659106333149
1.708947857250642E12,1.8369565217391304,-6.521739130434782,2.510869565217391,1.0426623872116074,30.779491755901788,31.822154143113394,482.2848322731057,583.8840131621376
1.7089478572701738E12,1.858695652173913,-6.456521739130435,2.5652173913043477,1.042085414181401,30.745306103862063,31.787391518043464,482.28490439473444,583.8786761616083
1.7089478572897053E12,1.8804347826086956,-6.423913043478261,2.641304347826087,1.0067458160812637,30.73441573791692,31.741161553998182,482.28613046242367,583.891658054788
1.708947857309237E12,1.891304347826087,-6.434782608695652,2.619565217391304,0.8561558551974124,30.785838459234057,31.641994314431468,482.28988078712,583.9413498570144
1.7089478573287686E12,1.8695652173913042,-6.510869565217391,2.619565217391304,1.840832452873284,31.48267763646575,33.32351008933903,482.2898086654912,583.9111308945573
1.7089478573483003E12,1.8804347826086956,-6.532608695652174,2.5760869565217392,1.5377052471286354,30.690421544363687,32.22812679149232,482.2901692736351,583.8077806005217
1.7089478573678318E12,1.9021739130434783,-6.467391304347826,2.3478260869565215,1.0432393602418137,30.66460200126195,31.707841361503764,482.2925492873847,583.9720736708729
1.7089478573873635E12,1.826086956521739,-6.489130434782608,2.5978260869565215,1.0285265479715524,30.747037022952682,31.775563570924234,482.28295711075754,583.8902877438412
1.7089478574068953E12,1.8152173913043477,-6.554347826086956,2.902173913043478,1.0329259673268756,30.74487337408941,31.777799341416284,482.2862747056812,583.8866816624023
1.7089478574264268E12,1.858695652173913,-6.510869565217391,2.510869565217391,1.024559858388884,30.75785526726905,31.782415125657934,482.29384747670264,583.8646845656258
1.7089478574459585E12,1.858695652173913,-6.423913043478261,2.4130434782608696,1.0164822359659953,30.79124758139224,31.807729817358236,482.28908744920346,583.8695167147538
1.70894785746549E12,1.891304347826087,-6.423913043478261,2.6739130434782608,1.0127319112696542,30.812379218623548,31.8251111298932,482.2909626115516,583.8818495132745
1.7089478574850217E12,1.858695652173913,-6.434782608695652,2.7391304347826084,1.024920466532763,30.820168354531333,31.845088821064095,482.2907462466653,583.8739882557378
1.7089478575045532E12,1.826086956521739,-6.521739130434782,2.641304347826087,1.0201604390335608,30.84166059990652,31.86182103894008,482.2925492873847,583.8815610267593
1.708947857524085E12,1.8804347826086956,-6.5978260869565215,2.684782608695652,1.037325386682199,30.84303091085326,31.880356297535457,482.2880056247718,583.899663555582
1.7089478575436165E12,1.8804347826086956,-6.5978260869565215,2.5760869565217392,1.0533363882704245,30.84555516786041,31.898891556130835,482.2898086654912,583.9231030849342
1.7089478575631482E12,1.8695652173913042,-6.532608695652174,2.543478260869565,1.0847814184166693,30.840506653846106,31.925288072262774,482.2865631921963,583.9362292213714
1.70894785758268E12,1.8695652173913042,-6.445652173913043,2.5978260869565215,1.1025233390955138,30.85262308748044,31.95514642657595,482.28576985427975,583.9198576116393
1.7089478576022114E12,1.9021739130434783,-6.4021739130434785,2.608695652173913,1.0663904030788427,30.858825547555156,31.925215950633998,482.2948571795055,583.8872586354325
1.7089478576217432E12,1.8804347826086956,-6.391304347826087,2.608695652173913,1.0467011984230516,30.836035112862007,31.882736311285058,482.29262140901346,583.8801907158125
1.7089478576412747E12,1.8369565217391304,-6.434782608695652,2.7717391304347827,1.0326374808117724,30.818798043584593,31.851435524396365,482.2925492873847,583.8817773916456
1.7089478576608064E12,1.8478260869565217,-6.5,2.6739130434782608,1.0368926569095442,30.81338892142641,31.850281578335952,482.29831901768677,583.8796137427823
1.708947857680338E12,1.8695652173913042,-6.5,2.5652173913043477,1.0316277780089114,30.821682908735625,31.853310686744535,482.2978862879141,583.8907925952426
1.7089478576998696E12,1.858695652173913,-6.445652173913043,2.6739130434782608,1.0178525469127353,30.84555516786041,31.863407714773146,482.2963717337098,583.8828592160772
1.7089478577194011E12,1.858695652173913,-6.5,2.6630434782608696,1.0156167764206858,30.842021208050397,31.857637984471083,482.29687658511125,583.8865374191448
1.7089478577389329E12,1.891304347826087,-6.5,2.6956521739130435,1.0202325606623366,30.842237572936725,31.86247013359906,482.2979584095429,583.8859604461146
1.7089478577584646E12,1.8695652173913042,-6.543478260869565,2.7717391304347827,1.0340799133872884,30.82723627415136,31.861316187538648,482.3071899780262,583.8799743509262
1.708947857777996E12,1.9021739130434783,-6.554347826086956,2.7065217391304346,1.0372532650534232,30.81951925987235,31.856772524925773,482.31122878923765,583.8860325677434
1.7089478577975278E12,1.9130434782608696,-6.543478260869565,2.652173913043478,1.040426616719558,30.81454286748682,31.85496948420638,482.3044493561327,583.886176811001
1.7089478578170593E12,1.8804347826086956,-6.5,2.7065217391304346,1.0296083724031893,30.821899273621952,31.85150764602514,482.30639664010965,583.8792531346385
1.708947857836591E12,1.8804347826086956,-6.434782608695652,2.717391304347826,1.029680494031965,30.84043453221733,31.870115026249294,482.30596391033697,583.8746373503968
1.7089478578561226E12,1.891304347826087,-6.434782608695652,2.6630434782608696,1.0191507362306997,30.895968186374688,31.915118922605387,482.29557839579326,583.8705985391854
1.7089478578756543E12,1.8695652173913042,-6.413043478260869,2.7065217391304346,1.0456914956201906,30.9608776522729,32.00656914789309,482.3081275592003,583.8441299014247
1.7089478578951858E12,1.8804347826086956,-6.391304347826087,2.793478260869565,1.0586012671710572,30.95453094894063,32.013132216111686,482.3056033021931,583.8291286026393
1.7089478579147175E12,1.891304347826087,-6.423913043478261,2.75,1.0381908462275085,30.84541092460286,31.883601770830367,482.30242995052697,583.8545154159684
1.7089478579342493E12,1.9130434782608696,-6.489130434782608,2.717391304347826,1.0297526156607408,30.813965894456615,31.843718510117355,482.3100027215484,583.8565348215741
1.7089478579537808E12,1.9130434782608696,-6.5,2.7391304347826084,1.0172034522537532,30.790310000218156,31.80751345247191,482.3211815740087,583.8768731208888
1.7089478579733125E12,1.891304347826087,-6.478260869565217,2.7282608695652173,0.8837784390185404,30.764923186889074,31.648701625907616,482.3148348706764,583.9135830299358
1.708947857992844E12,1.9021739130434783,-6.5,2.7065217391304346,1.1369974776503418,31.1706073487529,32.30760482640324,482.3116615190103,583.9104096782696
1.7089478580123757E12,1.9130434782608696,-6.478260869565217,2.793478260869565,1.603335929314605,31.100505125582835,32.70384105489744,482.3154118437066,583.7223885920512
1.7089478580319072E12,1.891304347826087,-6.456521739130435,2.7282608695652173,1.0943014734150736,30.57416147877711,31.668462952192183,482.3138251678736,583.9519517364445
1.708947858051439E12,1.9239130434782608,-6.456521739130435,2.6956521739130435,1.0292477642593103,30.753527969542503,31.782775733801813,482.3151233571915,583.9002405286122
1.7089478580709705E12,1.9021739130434783,-6.423913043478261,2.9456521739130435,1.0231174258133682,30.815047718888252,31.83816514470162,482.3142578976462,583.8563905783166
1.7089478580905022E12,1.8478260869565217,-6.434782608695652,2.967391304347826,1.0222519662680587,30.81973562475868,31.841987591026736,482.3157724518505,583.8502602398706
1.708947858110034E12,1.9130434782608696,-6.423913043478261,2.630434782608696,1.0358108324779074,30.82435140900033,31.860162241478236,482.3177918574562,583.8387207792665
1.7089478581295654E12,1.9239130434782608,-6.423913043478261,2.793478260869565,1.0294641291456377,30.85017095210206,31.8796350812477,482.3148348706764,583.8295613324119
1.7089478581490972E12,1.8695652173913042,-6.423913043478261,3.0869565217391304,1.0364599271368895,30.873105630052763,31.90956555718965,482.3159888167368,583.8277582916926
1.7089478581686287E12,1.8369565217391304,-6.510869565217391,2.880434782608696,1.0505236447481687,30.879452333385032,31.9299759781332,482.320099749577,583.8102327359001
1.7089478581881604E12,1.858695652173913,-6.576086956521739,2.891304347826087,1.056581861565335,30.89986275432858,31.956444615893915,482.313031829957,583.8323740759342
1.708947858207692E12,1.891304347826087,-6.5978260869565215,2.793478260869565,1.0842765670152388,30.90916644444066,31.9934430114559,482.3146906274189,583.8512699426735
1.7089478582272236E12,1.9130434782608696,-6.521739130434782,2.793478260869565,1.1161543269341383,30.900079119214908,32.016233446149045,482.3192342900317,583.8808398104716
1.7089478582467554E12,1.9130434782608696,-6.423913043478261,2.8152173913043477,1.1305065310605207,30.932461730535234,32.062968261595756,482.323345222872,583.8646845656258
1.7089478582662869E12,1.8695652173913042,-6.369565217391304,2.9130434782608696,1.0826898911821714,30.951718205418373,32.034408096600544,482.31959489817564,583.8364850087744
1.7089478582858186E12,1.9130434782608696,-6.326086956521739,2.9782608695652173,1.0444654279310022,30.9355629605726,31.9800283885036,482.3146906274189,583.8161467094596
1.70894785830535E12,1.8369565217391304,-6.456521739130435,2.9565217391304346,1.0234780339572471,30.913277377280878,31.936755411238124,482.316565789767,583.8131176010511
1.7089478583248818E12,1.858695652173913,-6.445652173913043,3.0,1.0068900593388153,30.903901565540025,31.91079162487884,482.316565789767,583.8302104270709
1.7089478583444133E12,1.9239130434782608,-6.521739130434782,2.782608695652174,1.0158331413070132,30.9266198786044,31.94245301991141,482.3163494248807,583.8208346153301
1.708947858363945E12,1.891304347826087,-6.434782608695652,2.793478260869565,1.0270841153960366,30.92077802667356,31.947862142069596,482.32413856078847,583.8387207792665
1.7089478583834766E12,1.9021739130434783,-6.423913043478261,2.9239130434782608,1.0298247372895166,30.912916769137,31.942741506426515,482.3189458035166,583.8304989135861
1.7089478584030083E12,1.9021739130434783,-6.423913043478261,3.0760869565217392,1.0220356013817313,30.92950474375543,31.95154034513716,482.3203882360921,583.8169400473762
1.70894785842254E12,1.934782608695652,-6.434782608695652,2.9130434782608696,1.0357387108491316,30.919479837355595,31.955218548204726,482.3253646284777,583.8129733577936
1.7089478584420715E12,1.9565217391304348,-6.478260869565217,2.880434782608696,1.0239107637299019,30.915080418000272,31.938991181730174,482.3199555063195,583.8140551822252
1.7089478584616033E12,1.891304347826087,-6.423913043478261,2.9891304347826084,1.0168428441098742,30.963618274166382,31.980461118276256,482.3252203852201,583.8108097089303
1.7089478584811348E12,1.8695652173913042,-6.4021739130434785,2.902173913043478,1.0288871561154314,30.97508561314173,32.00397276925716,482.3198112630619,583.8125406280209
1.7089478585006665E12,1.858695652173913,-6.33695652173913,2.8260869565217392,1.0494418203165317,31.035162929911962,32.08460475022849,482.3211094523799,583.7761192054891
1.708947858520198E12,1.8695652173913042,-6.326086956521739,2.9456521739130435,1.0523266854675635,30.946741813032848,31.99906849850041,482.322047033554,583.8001357078714
1.7089478585397297E12,1.891304347826087,-6.391304347826087,3.0,1.021098020207646,30.864811642743547,31.885909662951192,482.32002762794826,583.8066266544613
1.7089478585592612E12,1.934782608695652,-6.413043478260869,2.9891304347826084,1.0138858573300669,30.863008602024152,31.87689445935422,482.31332031647213,583.8129012361647
1.708947858578793E12,1.9239130434782608,-6.510869565217391,2.858695652173913,0.9985960720295992,30.846997600435927,31.845593672465526,482.30964211340455,583.8136945740813
1.7089478585983247E12,1.891304347826087,-6.510869565217391,2.7717391304347827,1.0891087161432167,31.121420397927814,32.21052911407103,482.301780855868,583.8488899289239
1.7089478586178562E12,1.8695652173913042,-6.456521739130435,2.880434782608696,1.7387082265267644,31.546072548159668,33.28478077468643,482.31346455972965,583.79256293685
1.708947858637388E12,1.8804347826086956,-6.423913043478261,2.8043478260869565,1.0994942306869306,30.709317411102944,31.808811641789873,482.31180576226785,583.8428317121067
1.7089478586569194E12,1.934782608695652,-6.4021739130434785,2.630434782608696,1.0240550069874534,30.71227439788275,31.736329404870204,482.3142578976462,583.9032696370208
1.7089478586764512E12,1.9021739130434783,-6.434782608695652,3.032608695652174,1.0405708599771095,30.854714614714936,31.895285474692045,482.3259416015079,583.7763355703754
1.7089478586959827E12,1.7934782608695652,-6.554347826086956,3.1739130434782608,1.044537549559778,30.867408021379475,31.911945570939253,482.3177918574562,583.7600360822721
1.7089478587155144E12,1.9021739130434783,-6.5,2.532608695652174,1.0518939556949087,30.89935790292715,31.951251858622058,482.3187294386303,583.7659500558317
1.708947858735046E12,1.934782608695652,-6.445652173913043,2.619565217391304,1.055211550618595,30.90570460625942,31.960916156878014,482.3125269785556,583.7698446237856
1.7089478587545776E12,1.9021739130434783,-6.4021739130434785,3.0760869565217392,1.0611255241782098,30.919696202241926,31.980821726420135,482.30726209965496,583.7620554878778
1.7089478587741094E12,1.8369565217391304,-6.456521739130435,2.9456521739130435,1.0770644041376596,30.927196851634605,32.00426125577226,482.30639664010965,583.7382553503818
1.7089478587936409E12,1.8043478260869565,-6.521739130434782,2.902173913043478,1.0852862698180998,30.924456229741125,32.00974249955922,482.3105796945786,583.734000174284
1.7089478588131726E12,1.8478260869565217,-6.576086956521739,2.869565217391304,1.1178131243959815,30.92250894576418,32.04032207016016,482.3061802752233,583.770349475187
1.708947858832704E12,1.8804347826086956,-6.58695652173913,2.608695652173913,1.1532248441248947,30.906930673948604,32.0601555180735,482.3146906274189,583.7963132615463
1.7089478588522358E12,1.891304347826087,-6.521739130434782,2.652173913043478,1.1623842909794202,30.92532168928643,32.08770598026585,482.31360880298723,583.8021551134772
1.7089478588717673E12,1.891304347826087,-6.434782608695652,2.793478260869565,1.1394496130287186,30.95049213772918,32.0899417507579,482.32046035772095,583.7631373123095
1.708947858891299E12,1.9021739130434783,-6.326086956521739,2.8152173913043477,1.102090609322859,30.951646083789598,32.053736693112455,482.3167100330246,583.7319086470495
1.7089478589108306E12,1.9021739130434783,-6.4021739130434785,2.880434782608696,1.0710061873204932,30.941188447617108,32.0121946349376,482.31649366813826,583.7239031462555
1.7089478589303623E12,1.858695652173913,-6.456521739130435,2.9130434782608696,1.0736025659564217,30.934264771254632,32.00786733721105,482.3089930187456,583.7241195111418
1.708947858949894E12,1.9021739130434783,-6.510869565217391,2.7065217391304346,1.0675443491392553,30.94443392091202,32.01197827005127,482.31137303249517,583.7534730140535
1.7089478589694255E12,1.8804347826086956,-6.532608695652174,2.6630434782608696,1.0677607140255827,30.95092486750184,32.01868558152742,482.29341474693,583.7663106639756
1.7089478589889573E12,1.8369565217391304,-6.489130434782608,2.760869565217391,1.0773528906527627,30.948616975381015,32.025969866033776,482.30257419378455,583.7930677882514
1.7089478590084888E12,1.826086956521739,-6.413043478260869,2.902173913043478,1.0865123375072883,30.935707203830148,32.022219541337435,482.2993287204896,583.7772010299208
1.7089478590280205E12,1.891304347826087,-6.478260869565217,2.880434782608696,1.0847814184166693,30.932966581936668,32.017748000353336,482.2973814365127,583.7636421637109
1.708947859047552E12,1.9239130434782608,-6.510869565217391,2.793478260869565,1.0883874998554588,30.929937473528085,32.01832497338354,482.2973814365127,583.7541942303412
1.7089478590670837E12,1.9239130434782608,-6.478260869565217,2.782608695652174,1.0855026347044272,30.918614377810286,32.00411701251471,482.29601112556594,583.7489293514407
1.7089478590866152E12,1.8804347826086956,-6.478260869565217,2.8152173913043477,1.0791559313721575,30.964844341855567,32.044000273227724,482.2845437865906,583.7510930003039
1.708947859106147E12,1.9239130434782608,-6.434782608695652,2.793478260869565,1.0760547013347985,30.998453020865085,32.07450772219988,482.28750077337037,583.7604688120448
1.7089478591256787E12,1.8695652173913042,-6.467391304347826,2.8478260869565215,1.1062736637918549,31.048938161008145,32.1552118248,482.3003384232925,583.7333510796251
1.7089478591452102E12,1.858695652173913,-6.489130434782608,2.8260869565217392,1.1286313687123501,31.01230037359004,32.14093174230239,482.2939917199602,583.7552039331441
1.708947859164742E12,1.858695652173913,-6.478260869565217,2.8043478260869565,1.099061500914276,30.898348200124293,31.997409701038567,482.2976699230278,583.7754701108302
1.7089478591842734E12,1.8478260869565217,-6.489130434782608,2.7717391304347827,1.0856468779619788,30.878082022438292,31.96372890040027,482.3012038828378,583.7906877745019
1.7089478592038052E12,1.858695652173913,-6.5,2.8043478260869565,1.105913055647976,30.84988246558696,31.955795521234933,482.29471293624795,583.7840525846544
1.7089478592233367E12,1.8804347826086956,-6.5,2.760869565217391,0.941475742039173,30.89971851107103,31.841194253110203,482.2984632609443,583.8323740759342
1.7089478592428684E12,1.8804347826086956,-6.456521739130435,2.8043478260869565,1.4646460371787593,31.524075451383048,32.98872148856181,482.29327050367243,583.8129733577936
1.7089478592624E12,1.891304347826087,-6.445652173913043,2.793478260869565,1.556456870610341,30.890414820958952,32.44687169156929,482.3013481260953,583.6967854138358
1.7089478592819316E12,1.9130434782608696,-6.413043478260869,2.5543478260869565,1.1437047891264904,30.67469902929056,31.818403818417053,482.2911068548092,583.9284400854635
1.7089478593014634E12,1.9239130434782608,-6.445652173913043,2.7282608695652173,1.1090142856853349,30.85190187119268,31.960916156878014,482.28576985427975,583.7997750997275
1.7089478593209949E12,1.7717391304347825,-6.510869565217391,3.25,1.1212028409484436,30.835386018203025,31.956588859151466,482.2903856385214,583.7941496126831
1.7089478593405266E12,1.8695652173913042,-6.5,2.6956521739130435,1.1225010302664078,30.849810343958183,31.972311374224592,482.2883662329157,583.7940053694255
1.708947859360058E12,1.891304347826087,-6.467391304347826,2.467391304347826,1.1114664210637117,30.856517655434335,31.967984076498045,482.2970929499976,583.7812398411322
1.7089478593795898E12,1.8369565217391304,-6.391304347826087,2.880434782608696,1.1136300699269857,30.86935530535642,31.98298537528341,482.2900971520063,583.7908320177594
1.7089478593991213E12,1.8478260869565217,-6.434782608695652,2.9130434782608696,1.1168034215931204,30.891713010276916,32.008516431870035,482.28432742170423,583.7966738696902
1.708947859418653E12,1.826086956521739,-6.521739130434782,2.8152173913043477,1.1186064623125151,30.89164088864814,32.010247350960654,482.28677955708264,583.8074921140065
1.7089478594381846E12,1.8695652173913042,-6.58695652173913,2.8043478260869565,1.1191834353427215,30.895823943117136,32.015007378459856,482.29305413878615,583.8312201298738
1.7089478594577163E12,1.934782608695652,-6.532608695652174,2.7065217391304346,1.1308671392043996,30.893371807738756,32.02423894694316,482.28403893518913,583.8659106333149
1.708947859477248E12,1.891304347826087,-6.532608695652174,2.641304347826087,1.1447866135581273,30.884500847399334,32.02928746095746,482.28966442223367,583.8777385804342
1.7089478594967795E12,1.9021739130434783,-6.489130434782608,2.684782608695652,1.1754383057878384,30.898203956866734,32.07364226265457,482.2853371245071,583.8702379310415
1.7089478595163113E12,1.9130434782608696,-6.4021739130434785,2.7391304347826084,1.1574078985938905,30.902675497850833,32.060083396444725,482.2847601514769,583.8569675513468
1.7089478595358428E12,1.891304347826087,-6.413043478260869,2.793478260869565,1.1398823428013733,30.875052914029705,32.01493525683108,482.27841344814465,583.8506208480145
1.7089478595553745E12,1.858695652173913,-6.456521739130435,2.8152173913043477,1.1339683692417586,30.866326196947835,32.000294566189595,482.28411105681795,583.8372783466909
1.708947859574906E12,1.8804347826086956,-6.5,2.6956521739130435,1.140315072574028,30.850603681874716,31.990918754448746,482.28403893518913,583.8331674138508
1.7089478595944377E12,1.9021739130434783,-6.489130434782608,2.684782608695652,1.1325259366662428,30.85911403407026,31.991639970736504,482.2907462466653,583.8331674138508
1.7089478596139692E12,1.9239130434782608,-6.434782608695652,2.760869565217391,1.1181016109110846,30.86610983206151,31.984211442972597,482.28620258405243,583.8466541584319
1.708947859633501E12,1.9456521739130435,-6.478260869565217,2.6630434782608696,1.1219961788649773,30.869283183727646,31.991279362592625,482.28411105681795,583.8434808067657
1.7089478596530327E12,1.9130434782608696,-6.445652173913043,2.7391304347826084,1.115937962047811,30.871230467704592,31.987168429752405,482.29218867924084,583.8530008617641
1.7089478596725642E12,1.891304347826087,-6.489130434782608,2.8152173913043477,1.1250974089023362,30.862575872251497,31.987673281153835,482.29500142276305,583.8614390923309
1.708947859692096E12,1.9021739130434783,-6.532608695652174,2.7282608695652173,1.1248810440160089,30.851973992821456,31.976855036837467,482.2906741250365,583.8420383741902
1.7089478597116274E12,1.891304347826087,-6.521739130434782,2.75,1.117308272994551,30.91068099864495,32.0279892716395,482.28295711075754,583.8434086851369
1.7089478597311592E12,1.9021739130434783,-6.532608695652174,2.6739130434782608,1.1322374501511396,30.935995690345248,32.06823314049639,482.2913953413243,583.8320134677904
1.7089478597506907E12,1.8804347826086956,-6.478260869565217,2.7065217391304346,1.1605091286312497,30.95013152958531,32.11064065821656,482.2853371245071,583.8535057131655
1.7089478597702224E12,1.891304347826087,-6.445652173913043,2.6739130434782608,1.1811359144611258,30.896617281033667,32.07775319549479,482.2931262604149,583.8687954984659
1.7089478597897542E12,1.9130434782608696,-6.423913043478261,2.6739130434782608,1.149330276171002,30.809638596730064,31.958968872901067,482.288582597802,583.8869701489175
1.7089478598092856E12,1.9021739130434783,-6.434782608695652,2.717391304347826,1.1536575738975494,30.771558376736447,31.925215950633998,482.2797116374626,583.8985817311504
1.7089478598288174E12,1.9239130434782608,-6.456521739130435,2.619565217391304,1.1354829234460502,30.780140850560766,31.915623774006818,482.2790625428036,583.8773058506615
1.7089478598483489E12,1.9021739130434783,-6.445652173913043,2.6630434782608696,1.0870893105374946,30.957848543864316,32.04493785440181,482.281514678182,583.9299546396678
1.7089478598678806E12,1.891304347826087,-6.467391304347826,2.717391304347826,1.803978300568855,31.689450346165938,33.49342864673479,482.2812983132957,583.8559578485439
1.708947859887412E12,1.858695652173913,-6.510869565217391,2.652173913043478,1.4426489404021432,30.561540193741344,32.00418913414349,482.2904577601502,583.9240406661082
1.7089478599069438E12,1.9239130434782608,-6.456521739130435,2.369565217391304,1.1729861704094613,30.673472961601373,31.846459132010835,482.29233292249836,583.9298103964103
1.7089478599264753E12,1.934782608695652,-6.4021739130434785,2.8043478260869565,1.1657740075318823,30.758071632155374,31.923845639687258,482.2889432059459,583.8509093345295
1.708947859946007E12,1.7934782608695652,-6.532608695652174,3.010869565217391,1.1599321556010433,30.78143903987873,31.941371195479775,482.27682677231155,583.8553808755137
1.7089478599655388E12,1.9130434782608696,-6.489130434782608,2.5217391304347827,1.163826723554936,30.77783295843994,31.941659681994878,482.2722109880699,583.842759590478
1.7089478599850703E12,1.891304347826087,-6.434782608695652,2.532608695652174,1.157552141851442,30.797594284724507,31.95514642657595,482.28519288124954,583.8447068744549
1.708947860004602E12,1.8804347826086956,-6.423913043478261,2.793478260869565,1.1514939250342757,30.81367740794151,31.965171332975785,482.28338984053016,583.8798301076687
1.7089478600241335E12,1.8478260869565217,-6.5,2.75,1.1653412777592276,30.844256978542443,32.00959825630167,482.2783413265159,583.8852392298269
1.7089478600436653E12,1.9021739130434783,-6.532608695652174,2.760869565217391,1.158345479767976,30.846636992292044,32.00498247206002,482.2817310430683,583.8968508120598
1.7089478600631968E12,1.9021739130434783,-6.58695652173913,2.6956521739130435,1.1750776976439594,30.83985755918712,32.01493525683108,482.2812261916669,583.9092557322092
1.7089478600827285E12,1.934782608695652,-6.554347826086956,2.5217391304347827,1.1911608208609608,30.837693910323846,32.02885473118481,482.27689889394037,583.9220212605026
1.70894786010226E12,1.9021739130434783,-6.489130434782608,2.5978260869565215,1.2109942687743032,30.828173855325442,32.039168124099746,482.26918187966135,583.9427201679612
1.7089478601217917E12,1.891304347826087,-6.423913043478261,2.641304347826087,1.2143839853267653,30.86041222338822,32.074796208714986,482.2797837590914,583.9340655725081
1.7089478601413235E12,1.9130434782608696,-6.4021739130434785,2.619565217391304,1.206234241275101,30.844689708315098,32.0509239495902,482.27725950208423,583.9298825180391
1.708947860160855E12,1.8804347826086956,-6.423913043478261,2.6956521739130435,1.1723370757504792,30.826082328090948,31.998419403841428,482.25814727045866,583.9149533408824
1.7089478601803867E12,1.8369565217391304,-6.489130434782608,2.7065217391304346,1.1766643734770268,30.81475923237315,31.991423605850176,482.2711291636383,583.9113472594437
1.7089478601999182E12,1.858695652173913,-6.489130434782608,2.608695652173913,1.177241346507233,30.813244678168857,31.99048602467609,482.2776201102281,583.8901435005836
1.70894786021945E12,1.9021739130434783,-6.478260869565217,2.5978260869565215,1.1719764676066002,30.81612954331989,31.98810601092649,482.27358129901666,583.8982211230065
1.7089478602389814E12,1.9021739130434783,-6.478260869565217,2.684782608695652,1.1546672767004105,30.836539964263437,31.99120724096385,482.27574494787996,583.9049284344827
1.7089478602585132E12,1.9021739130434783,-6.510869565217391,2.630434782608696,1.1630333856384023,30.843175154110806,32.00620853974921,482.27870193465975,583.9041350965662
1.7089478602780447E12,1.9021739130434783,-6.510869565217391,2.684782608695652,1.1626727774945234,30.8494497358143,32.012122513308825,482.2842553000755,583.9168285032307
1.7089478602975764E12,1.9021739130434783,-6.5,2.684782608695652,1.169668575485775,30.84245393782305,32.012122513308825,482.28050497537913,583.9029090288769
1.7089478603171082E12,1.9130434782608696,-6.543478260869565,2.652173913043478,1.1749334543864078,30.829616287900958,32.00454974228737,482.2796395158338,583.8894944059247
1.7089478603366396E12,1.8804347826086956,-6.532608695652174,2.641304347826087,1.1663509805620886,30.834159950513833,32.00051093107592,482.2794231509475,583.9040629749373
1.7089478603561714E12,1.9021739130434783,-6.489130434782608,2.619565217391304,1.1813522793474531,30.84000180244467,32.021354081792126,482.2719225015548,583.9127896920193
1.708947860375703E12,1.8804347826086956,-6.445652173913043,2.630434782608696,1.1599321556010433,30.91233979610679,32.07227195170783,482.27769223185686,583.89742778509
1.7089478603952346E12,1.891304347826087,-6.467391304347826,2.630434782608696,1.1951275104436292,30.950852745873068,32.1459802563167,482.2767546506828,583.8865374191448
1.708947860414766E12,1.9021739130434783,-6.445652173913043,2.641304347826087,1.2043590789269303,30.952150935191032,32.15651001411796,482.2783413265159,583.8693724714961
1.7089478604342979E12,1.891304347826087,-6.478260869565217,2.6630434782608696,1.180703184688471,30.838198761725277,32.01890194641375,482.2824522593561,583.9079575428913
1.7089478604538293E12,1.8695652173913042,-6.5,2.608695652173913,1.1726255622655823,30.806248880177606,31.97887444244319,482.2758170695087,583.9050005561114
1.708947860473361E12,1.858695652173913,-6.532608695652174,2.6739130434782608,1.1719043459778244,30.789588783930395,31.96149312990822,482.2779085967432,583.9203624630406
1.7089478604928928E12,1.8804347826086956,-6.510869565217391,2.608695652173913,1.0067458160812637,30.793194865369188,31.79994068145045,482.28043285375037,583.9602457237537
1.7089478605124243E12,1.9130434782608696,-6.5,2.608695652173913,1.6572829076388966,31.538427655509434,33.19571056314833,482.27430251530444,583.9858489019691
1.708947860531956E12,1.8804347826086956,-6.489130434782608,2.684782608695652,1.9467791255449207,31.064011581422278,33.0107907069672,482.2685327850024,583.8531451050217
1.7089478605514875E12,1.891304347826087,-6.5,2.5,1.301723277774248,30.535215799238184,31.83693907701243,482.26874914988866,584.1044889813053
1.7089478605710193E12,1.9565217391304348,-6.467391304347826,2.510869565217391,1.1707503999174118,30.80156097430718,31.972311374224592,482.27697101556913,583.9597408723523
1.7089478605905508E12,1.8043478260869565,-6.456521739130435,3.0652173913043477,1.1722649541217034,30.807763434381897,31.9800283885036,482.2820916512122,583.935363761826
1.7089478606100825E12,1.9130434782608696,-6.5,2.5760869565217392,1.162095804464317,30.830193260931168,31.992289065395486,482.28281286749996,583.9232473281917
1.708947860629614E12,1.9130434782608696,-6.489130434782608,2.369565217391304,1.1620236828355412,30.85118065490492,32.01320433774046,482.28396681356037,583.9151697057688
1.7089478606491458E12,1.8804347826086956,-6.413043478260869,2.7717391304347827,1.161735196320438,30.857455236608413,32.01919043292885,482.2814425565532,583.9358686132275
1.7089478606686775E12,1.8695652173913042,-6.489130434782608,2.760869565217391,1.1626727774945234,30.871951683992346,32.03462446148687,482.28338984053016,583.9228867200478
1.708947860688209E12,1.891304347826087,-6.565217391304348,2.6739130434782608,1.1706061566598602,30.888034807209348,32.05864096386921,482.2825965026136,583.9200018548968
1.7089478607077407E12,1.9130434782608696,-6.619565217391304,2.684782608695652,1.1685867510541381,30.888106928838123,32.05669367989226,482.2815867998108,583.9497880875812
1.7089478607272722E12,1.9021739130434783,-6.58695652173913,2.641304347826087,1.1786116574539731,30.895391213344478,32.07400287079845,482.2851207596208,583.9711360896988
1.708947860746804E12,1.9456521739130435,-6.543478260869565,2.5652173913043477,1.2131579176375769,30.86228738573639,32.07544530337397,482.2802886104928,584.0009223223832
1.7089478607663354E12,1.9239130434782608,-6.5,2.684782608695652,1.2296016489984571,30.89820395686674,32.1278056058652,482.2836062054165,583.9851998073101
1.7089478607858672E12,1.934782608695652,-6.423913043478261,2.619565217391304,1.2063784845326526,30.912988890765778,32.11936737529843,482.2797116374626,583.9378880188332
1.7089478608053987E12,1.934782608695652,-6.4021739130434785,2.6956521739130435,1.1893577801415658,30.906570065804733,32.0959278459463,482.2789182995461,583.9063708670582
1.7089478608249304E12,1.858695652173913,-6.445652173913043,2.8152173913043477,1.1796213602568342,30.895751821488357,32.07537318174519,482.2777643534857,583.8957689876281
1.7089478608444622E12,1.8804347826086956,-6.445652173913043,2.7065217391304346,1.164836426357797,30.900367605730008,32.065204032087806,482.2818031646971,583.8799743509262
1.7089478608639937E12,1.9130434782608696,-6.478260869565217,2.5978260869565215,1.1678655347663802,30.901954281563075,32.069819816329456,482.2758170695087,583.8887010680081
1.7089478608835254E12,1.8695652173913042,-6.423913043478261,2.782608695652174,1.149330276171002,30.91471980985639,32.06405008602739,482.28367832704527,583.899663555582
1.708947860903057E12,1.9021739130434783,-6.489130434782608,2.7065217391304346,1.1458684379897641,30.92467259462745,32.070541032617214,482.282163772841,583.9091114889517
1.7089478609225886E12,1.9239130434782608,-6.467391304347826,2.760869565217391,1.1570472904500115,30.93570720383015,32.092754494280165,482.29276565227104,583.8955526227418
1.70894786094212E12,1.891304347826087,-6.467391304347826,2.8152173913043477,1.154523033442859,30.93080293307339,32.08532596651625,482.29543415253573,583.8739161341091
1.7089478609616519E12,1.891304347826087,-6.5,2.717391304347826,1.1484648166256926,30.917676796636197,32.06614161326189,482.2913232196955,583.8726179447912
1.7089478609811833E12,1.8695652173913042,-6.510869565217391,2.75,1.1540181820414284,30.918253769666403,32.07227195170783,482.2912510980667,583.8662712414589
1.708947861000715E12,1.8478260869565217,-6.478260869565217,2.7717391304347827,1.1600042772298191,30.91847013455273,32.07847441178255,482.29413596321774,583.8705985391854
1.7089478610202468E12,1.8695652173913042,-6.423913043478261,2.8043478260869565,1.1415411402632165,31.0130215898778,32.154562730141016,482.29867962583063,583.8474474963483
1.7089478610397783E12,1.858695652173913,-6.489130434782608,2.717391304347826,1.1639709668124876,31.035307173169517,32.199278139982006,482.2988238690882,583.8306431568436
1.70894786105931E12,1.891304347826087,-6.467391304347826,2.782608695652174,1.1851026040437942,31.070286163125775,32.25538876716957,482.29745355814146,583.8023714783635
1.7089478610788416E12,1.9130434782608696,-6.434782608695652,2.8043478260869565,1.1709667648037392,30.952223056819808,32.12318982162355,482.3001941800349,583.8302104270709
1.7089478610983733E12,1.9021739130434783,-6.456521739130435,2.8043478260869565,1.1519987764357063,30.910031903985963,32.06203068042167,482.3056033021931,583.8336722652522
1.7089478611179048E12,1.9021739130434783,-6.478260869565217,2.8260869565217392,1.1480320868530378,30.903180349252263,32.0512124361053,482.3044493561327,583.8258110077156
1.7089478611374365E12,1.9130434782608696,-6.489130434782608,2.793478260869565,1.0699243628888564,30.9013051869041,31.971229549792955,482.2999056935198,583.8616554572172
1.7089478611569683E12,1.9130434782608696,-6.467391304347826,2.7391304347826084,1.3673539599602176,31.373413368870423,32.74076732883064,482.30127600446656,583.9003847718698
1.7089478611764998E12,1.891304347826087,-6.445652173913043,2.8152173913043477,1.8851151329416196,31.485778866503104,33.370893999444725,482.3071178563974,583.8097278844987
1.7089478611960315E12,1.891304347826087,-6.423913043478261,2.782608695652174,1.1828668335517447,30.67441054277546,31.857277376327204,482.3155560869642,583.9792137121217
1.708947861215563E12,1.934782608695652,-6.445652173913043,2.793478260869565,1.1519987764357063,30.833510855854854,31.98550963229056,482.31036332969234,583.9137272731933
1.7089478612350947E12,1.8804347826086956,-6.413043478260869,3.0543478260869565,1.1527199927234641,30.931884757505028,32.08460475022849,482.31202212715414,583.8338165085097
1.7089478612546262E12,1.858695652173913,-6.478260869565217,2.9891304347826084,1.1450029784444546,30.947967880722036,32.09297085916649,482.3159888167368,583.8299940621846
1.708947861274158E12,1.967391304347826,-6.413043478260869,2.5978260869565215,1.1482484517393652,30.954963678713288,32.103212130452654,482.3035117749586,583.8280467782076
1.7089478612936895E12,1.9130434782608696,-6.391304347826087,2.869565217391304,1.1599321556010433,30.970037099127428,32.12996925472847,482.3116615190103,583.8378553197211
1.7089478613132212E12,1.8695652173913042,-6.456521739130435,3.141304347826087,1.1570472904500115,31.00032818321326,32.15737547366327,482.3092815052607,583.8181661150654
1.708947861332753E12,1.8695652173913042,-6.489130434782608,2.9130434782608696,1.1712552513188423,31.01439190082454,32.18564715214338,482.2984632609443,583.8232146290796
1.7089478613522844E12,1.826086956521739,-6.576086956521739,2.934782608695652,1.1683703861678107,31.019440414838844,32.187810801006655,482.30581966707945,583.835331062714
1.7089478613718162E12,1.8695652173913042,-6.5978260869565215,2.8152173913043477,1.21481671509942,30.993332385222008,32.20814910032143,482.3089208971168,583.8814889051305
1.7089478613913477E12,1.9021739130434783,-6.5,2.75,1.2259234459308919,30.98474991139769,32.21067335732858,482.3118778838966,583.8830755809636
1.7089478614108794E12,1.8804347826086956,-6.434782608695652,2.858695652173913,1.2370301767623637,31.0246331721107,32.261663348873064,482.30819968082903,583.8674251875193
1.708947861430411E12,1.9239130434782608,-6.3478260869565215,2.9130434782608696,1.2039984707830513,31.031917456617055,32.23591592740011,482.3100027215484,583.8403795767283
1.7089478614499426E12,1.934782608695652,-6.326086956521739,2.9891304347826084,1.165918250789434,31.038047795062997,32.20396604585243,482.31122878923765,583.8199691557847
1.708947861469474E12,1.826086956521739,-6.467391304347826,3.0,1.1419738700358713,31.01850283366476,32.16047670370063,482.31151727575275,583.8100163710137
1.7089478614890059E12,1.891304347826087,-6.413043478260869,2.967391304347826,1.1236549763268204,31.044610863281598,32.16826583960842,482.3083439240866,583.8156418580583
1.7089478615085376E12,1.9130434782608696,-6.5,2.858695652173913,1.137285964165445,31.03884113297953,32.17612709714498,482.3097142350333,583.8423989823341
1.708947861528069E12,1.8695652173913042,-6.434782608695652,2.869565217391304,1.1325259366662428,31.055068499454084,32.18759443612033,482.3084160457154,583.841100793016
1.7089478615476008E12,1.9021739130434783,-6.4021739130434785,3.0543478260869565,1.1325980582950186,31.041509633244235,32.174107691539255,482.3211815740087,583.8448511177124
1.7089478615671323E12,1.9130434782608696,-6.423913043478261,3.032608695652174,1.121058597690892,31.054275161537554,32.175333759228444,482.3121663704117,583.8333116571083
1.708947861586664E12,1.9239130434782608,-6.456521739130435,2.934782608695652,1.132453815037467,31.03783143017667,32.17028524521414,482.31678215465337,583.835980157373
1.7089478616061956E12,1.9021739130434783,-6.467391304347826,2.9130434782608696,1.126900449621731,31.039562349267293,32.16646279888902,482.3146906274189,583.8360522790018
1.7089478616257273E12,1.8804347826086956,-6.445652173913043,3.0,1.111827029207591,31.05348182362102,32.16530885282861,482.3154118437066,583.8248013049127
1.7089478616452588E12,1.9239130434782608,-6.434782608695652,2.891304347826087,1.1170197864794478,31.12336768190476,32.240387468384206,482.32154218215254,583.8003520727577
1.7089478616647905E12,1.8695652173913042,-6.380434782608695,2.967391304347826,1.1464454110199704,31.168948551291056,32.31539396231103,482.31973914143316,583.7707822049597
1.7089478616843223E12,1.858695652173913,-6.391304347826087,3.0,1.1351223153021712,31.08528746191114,32.22040977721331,482.3159888167368,583.792851423365
1.7089478617038538E12,1.8804347826086956,-6.413043478260869,2.967391304347826,1.122428908637632,31.037470822032795,32.159899730670425,482.3139694111311,583.7950871938572
1.7089478617233855E12,1.891304347826087,-6.423913043478261,3.010869565217391,1.112476123866573,31.003429413250622,32.11590553711719,482.31360880298723,583.8061218030598
1.708947861742917E12,1.9021739130434783,-6.434782608695652,3.0,1.0846371751591177,31.007179737946963,32.09181691310608,482.31771973582744,583.7975393292355
1.7089478617624487E12,1.891304347826087,-6.456521739130435,2.9891304347826084,0.9865517600240422,30.998020291092434,31.984572051116476,482.3161330599944,583.8708149040717
1.7089478617819802E12,1.8695652173913042,-6.423913043478261,2.9782608695652173,1.7775096628081397,31.762653799373364,33.5401634621815,482.3161330599944,583.7641470151124
1.708947861801512E12,1.9130434782608696,-6.456521739130435,2.891304347826087,1.3871152862447842,31.200754189581176,32.58786947582596,482.3154839653354,583.6181728384702
1.7089478618210435E12,1.934782608695652,-6.4021739130434785,2.9130434782608696,1.114207042957192,30.85449824982861,31.968705292785803,482.30553118056434,583.9003847718698
1.7089478618405752E12,1.9456521739130435,-6.413043478260869,2.9565217391304346,1.1173803946233267,31.003934264652052,32.12131465927538,482.30430511287517,583.7839083413969
1.708947861860107E12,1.75,-6.445652173913043,3.3478260869565215,1.1205537462894615,31.030619267299095,32.151173013588554,482.3089930187456,583.7499390542434
1.7089478618796384E12,1.9239130434782608,-6.445652173913043,2.8478260869565215,1.130362287802969,31.035667781313396,32.16603006911637,482.31678215465337,583.7485687432968
1.7089478618991702E12,1.967391304347826,-6.423913043478261,2.684782608695652,1.142839329581181,31.037182335517688,32.18002166509887,482.3138251678736,583.7360195798898
1.7089478619187017E12,1.8804347826086956,-6.4021739130434785,3.184782608695652,1.1368532343927902,31.067689784489847,32.20454301888264,482.31433001927496,583.7395535396997
1.7089478619382334E12,1.8695652173913042,-6.467391304347826,3.010869565217391,1.143849032384042,31.077498326003354,32.2213473583874,482.3118778838966,583.7283025656108
1.708947861957765E12,1.858695652173913,-6.5,2.9782608695652173,1.1750776976439594,31.077281961117027,32.25235965876099,482.30084327469393,583.7350819987157
1.7089478619772966E12,1.8804347826086956,-6.58695652173913,3.010869565217391,1.1949832671860776,31.059179432294304,32.25416269948038,482.3012038828378,583.7549154466291
1.7089478619968281E12,1.9130434782608696,-6.619565217391304,2.75,1.2324865141494887,31.022325279989875,32.254811794139364,482.2994008421184,583.7743882863984
1.7089478620163599E12,1.934782608695652,-6.521739130434782,2.8043478260869565,1.244170218011167,31.03696597063136,32.28113618864253,482.30755058617007,583.7698446237856
1.7089478620358916E12,1.9239130434782608,-6.413043478260869,2.902173913043478,1.2361647172170542,31.07670498808682,32.312869705303875,482.3085602889729,583.7397699045861
1.708947862055423E12,1.9239130434782608,-6.391304347826087,2.8152173913043477,1.1764480085906994,31.127045884972322,32.30349389356302,482.2959390039372,583.7026993873953
1.7089478620749548E12,1.9130434782608696,-6.391304347826087,2.9239130434782608,1.161735196320438,31.106635464028773,32.26837066034921,482.2984632609443,583.6789713715281
1.7089478620944863E12,1.891304347826087,-6.413043478260869,3.010869565217391,1.149330276171002,31.11918462743576,32.268514903606764,482.30935362688945,583.6904387105035
1.708947862114018E12,1.9456521739130435,-6.5,2.8369565217391304,1.145579951474661,31.122646465617,32.26822641709166,482.3092815052607,583.7032763604255
1.7089478621335496E12,1.891304347826087,-6.467391304347826,2.8369565217391304,1.1387283967409607,31.145653265196476,32.28438166193744,482.3069014915111,583.7193594836425
1.7089478621530813E12,1.891304347826087,-6.467391304347826,2.891304347826087,1.1434163026113873,31.156110901368965,32.299527203980354,482.30791119431393,583.7229655650814
1.7089478621726128E12,1.9021739130434783,-6.467391304347826,3.010869565217391,1.153441209011222,31.157625455573257,32.31106666458448,482.30336753170104,583.712796415424
1.7089478621921445E12,1.9130434782608696,-6.5,2.9891304347826084,1.1538739387838768,31.155101198566104,32.30897513734998,482.30430511287517,583.7157534022037
1.7089478622116763E12,1.967391304347826,-6.5,2.858695652173913,1.1437047891264904,31.154812712051,32.29851750117749,482.3076948294276,583.7189988754986
1.7089478622312078E12,1.9456521739130435,-6.521739130434782,2.880434782608696,1.153080600867343,31.13065196641111,32.283732567278456,482.30567542382187,583.7166909833778
1.7089478622507395E12,1.9239130434782608,-6.467391304347826,2.9565217391304346,1.152070898064482,31.14745630591587,32.299527203980354,482.3105796945786,583.7114261044773
1.708947862270271E12,1.9021739130434783,-6.434782608695652,2.891304347826087,1.140675680717907,31.194479607877685,32.335155288595594,482.31238273529806,583.719215240385
1.7089478622898027E12,1.8804347826086956,-6.4021739130434785,2.9565217391304346,1.1430556944675083,31.23429074696192,32.37734644142943,482.3013481260953,583.7157534022037
1.7089478623093342E12,1.891304347826087,-6.434782608695652,2.9891304347826084,1.1726255622655823,31.27835706214393,32.45098262440951,482.3009153963227,583.6754374117181
1.708947862328866E12,1.8804347826086956,-6.489130434782608,2.934782608695652,1.198589348624867,31.251744181125662,32.45033352975053,482.3048820859054,583.6744277089152
1.7089478623483975E12,1.9239130434782608,-6.5,2.9239130434782608,1.152070898064482,31.16765036197309,32.319721260037575,482.30279055867084,583.6888520346704
1.7089478623679292E12,1.891304347826087,-6.510869565217391,2.9130434782608696,1.1547393983291863,31.122574343988223,32.27731374231741,482.30336753170104,583.7022666576227
1.708947862387461E12,1.9130434782608696,-6.489130434782608,2.902173913043478,1.1514218034055,31.116371883913505,32.267793687319006,482.30315116681476,583.6939726703134
1.7089478624069924E12,1.9130434782608696,-6.456521739130435,2.902173913043478,1.0154004115343584,31.175223132994553,32.19062354452891,482.29507354439187,583.7624882176505
1.7089478624265242E12,1.891304347826087,-6.423913043478261,2.902173913043478,1.5180881641016204,31.869033201817658,33.38712136591928,482.29925659886084,583.691881143079
1.7089478624460557E12,1.891304347826087,-6.423913043478261,2.858695652173913,1.5157081503520191,31.201042676096286,32.716750826448305,482.30142024772414,583.6214183117651
1.7089478624655874E12,1.934782608695652,-6.391304347826087,2.6630434782608696,1.1673606833649497,30.999174237152847,32.1665349205178,482.3074784645413,583.8379995629788
1.708947862485119E12,1.9239130434782608,-6.423913043478261,2.8043478260869565,1.1768086167345784,31.13050772315356,32.30731633988814,482.2999778151486,583.7242637543993
1.7089478625046506E12,1.8152173913043477,-6.467391304347826,3.434782608695652,1.1594994258283886,31.148754495233835,32.308253921062224,482.301780855868,583.6902223456171
1.7089478625241821E12,1.9239130434782608,-6.445652173913043,2.760869565217391,1.1628891423808507,31.166568537541455,32.32945767992231,482.30142024772414,583.6904387105035
1.7089478625437139E12,1.9456521739130435,-6.467391304347826,2.5543478260869565,1.1573357769651147,31.184382579849075,32.34171835681419,482.2952177876494,583.7025551441378
1.7089478625632456E12,1.826086956521739,-6.391304347826087,3.1304347826086953,1.1695243322282234,31.19988873003587,32.369413062264094,482.298246896058,583.7054400092888
1.708947862582777E12,1.8695652173913042,-6.456521739130435,3.108695652173913,1.1597879123434918,31.226357367796584,32.38614528014008,482.3048820859054,583.6959199542904
1.7089478626023088E12,1.8695652173913042,-6.510869565217391,2.880434782608696,1.1630333856384023,31.23515620650723,32.398189592145634,482.2973814365127,583.7033484820544
1.7089478626218403E12,1.9021739130434783,-6.58695652173913,2.858695652173913,1.157552141851442,31.232343462984975,32.38989560483642,482.29889599071697,583.729168025156
1.708947862641372E12,1.8804347826086956,-6.5978260869565215,2.7065217391304346,1.1876268610509468,31.215034272078785,32.40266113312973,482.294063841589,583.7722246375353
1.7089478626609036E12,1.8695652173913042,-6.510869565217391,2.760869565217391,1.2087584982822537,31.215539123480216,32.42429762176247,482.2970929499976,583.7717197861338
1.7089478626804353E12,1.891304347826087,-6.391304347826087,2.8260869565217392,1.2067390926765316,31.25657633025364,32.46331542293017,482.2962274904523,583.748785108183
1.708947862699967E12,1.9130434782608696,-6.391304347826087,2.8043478260869565,1.190078996429324,31.273597034644727,32.46367603107405,482.29615536882346,583.7267880114065
1.7089478627194985E12,1.891304347826087,-6.391304347826087,2.9891304347826084,1.1705340350310844,31.265880020365717,32.4364140553968,482.2890153275747,583.716330375234
1.7089478627390303E12,1.8478260869565217,-6.445652173913043,2.9456521739130435,1.169307967341896,31.250301748550147,32.419609715892044,482.29889599071697,583.7192873620138
1.7089478627585618E12,1.9130434782608696,-6.467391304347826,2.7391304347826084,1.1629612640096265,31.25095084320913,32.413912107218756,482.3003384232925,583.7548433250003
1.7089478627780935E12,1.9130434782608696,-6.489130434782608,2.858695652173913,1.1538739387838768,31.268620642259197,32.422494581043075,482.30286268029965,583.7642191367411
1.708947862797625E12,1.9130434782608696,-6.489130434782608,2.9565217391304346,1.160076398858595,31.262346060555704,32.4224224594143,482.2913953413243,583.7634257988245
1.7089478628171567E12,1.9456521739130435,-6.478260869565217,2.8152173913043477,1.1525036278371368,31.282395873355373,32.43489950119251,482.2889432059459,583.7521748247356
1.7089478628366882E12,1.9130434782608696,-6.456521739130435,2.934782608695652,1.1646200614714697,31.278717670287808,32.44333773175928,482.28411105681795,583.7313316740193
1.70894786285622E12,1.9021739130434783,-6.489130434782608,2.9565217391304346,1.1573357769651147,31.28484800873375,32.442183785698866,482.2871401652265,583.7273649844367
1.7089478628757517E12,1.934782608695652,-6.489130434782608,2.8478260869565215,1.163826723554936,31.281025562408633,32.44485228596357,482.28266862424243,583.719215240385
1.7089478628952832E12,1.9130434782608696,-6.478260869565217,2.869565217391304,1.1619515612067655,31.28037646774965,32.44232802895642,482.29175594946815,583.7285910521258
1.708947862914815E12,1.858695652173913,-6.434782608695652,2.869565217391304,1.1604370070024739,31.324370661302883,32.48480766830536,482.2934868685588,583.7272928628079
1.7089478629343464E12,1.858695652173913,-6.423913043478261,2.858695652173913,1.1543787901853073,31.373269125612868,32.52764791579818,482.2991123556033,583.716979469893
1.7089478629538782E12,1.8695652173913042,-6.423913043478261,2.9130434782608696,1.197579645822006,31.41531603518916,32.61289568101117,482.29889599071697,583.7001751303882
1.7089478629734097E12,1.9021739130434783,-6.467391304347826,2.902173913043478,1.21481671509942,31.395194100760715,32.610010815860136,482.2959390039372,583.7091182123564
1.7089478629929414E12,1.9130434782608696,-6.489130434782608,2.891304347826087,1.1832274416956237,31.273597034644727,32.45682447634035,482.29449657136166,583.7249128490583
1.708947863012473E12,1.9239130434782608,-6.510869565217391,2.8369565217391304,1.1858959419603279,31.243305950558895,32.429201892519224,482.28281286749996,583.735947458261
1.7089478630320046E12,1.9021739130434783,-6.456521739130435,2.880434782608696,1.174572846242529,31.233497409045388,32.40807025528792,482.27855769140217,583.7515978517054
1.7089478630515364E12,1.9239130434782608,-6.489130434782608,2.8043478260869565,1.0351617378189253,31.224914935221072,32.26007667304,482.2900971520063,583.8295613324119
1.7089478630710679E12,1.891304347826087,-6.478260869565217,2.793478260869565,1.4520968737717717,31.860017998220684,33.312114871992456,482.29002503037754,583.7929956666227
1.7089478630905996E12,1.891304347826087,-6.434782608695652,2.8478260869565215,1.6688944898717988,31.437385253594552,33.10627974346635,482.28706804359774,583.6391602324438
1.708947863110131E12,1.9456521739130435,-6.380434782608695,2.608695652173913,1.2284477029380445,31.08319593467664,32.31164363761469,482.286995921969,583.9109866512998
1.7089478631296628E12,2.010869565217391,-6.380434782608695,2.75,1.1918099155199429,31.261336357752842,32.453146273272786,482.2745188801907,583.7816004492761
1.7089478631491943E12,1.8695652173913042,-6.478260869565217,3.282608695652174,1.1980123755946608,31.27424612930371,32.47225850489837,482.2761776776526,583.763930650226
1.708947863168726E12,1.9782608695652173,-6.489130434782608,2.6739130434782608,1.2066669710477558,31.291050468808468,32.497717439856224,482.28411105681795,583.7511651219327
1.7089478631882576E12,1.9891304347826086,-6.445652173913043,2.4891304347826084,1.2032051328665176,31.30814329482833,32.51134842769485,482.28519288124954,583.7573675820074
1.7089478632077893E12,1.891304347826087,-6.4021739130434785,2.9456521739130435,1.1978681323371092,31.326173702022277,32.52404183435939,482.2807213402655,583.767464610036
1.708947863227321E12,1.9239130434782608,-6.467391304347826,2.880434782608696,1.2095518361987874,31.331366459294134,32.54091829549292,482.2814425565532,583.7588821362117
1.7089478632468525E12,1.9239130434782608,-6.5,2.8152173913043477,1.2022675516924324,31.35336355607075,32.55563110776318,482.28663531382506,583.7720803942776
1.7089478632663843E12,1.9782608695652173,-6.554347826086956,2.75,1.2187834046820885,31.353579920957078,32.57236332563917,482.28735653011285,583.7943659775693
1.7089478632859158E12,1.9456521739130435,-6.543478260869565,2.608695652173913,1.2284477029380445,31.33829013565661,32.566737838594655,482.280865583523,583.8334559003658
1.7089478633054475E12,1.9565217391304348,-6.489130434782608,2.684782608695652,1.254483610926105,31.326534310166156,32.58101792109226,482.2806492186367,583.8608621193007
1.708947863324979E12,1.967391304347826,-6.478260869565217,2.717391304347826,1.2773461672480306,31.338362257285393,32.61570842453342,482.2812261916669,583.8505487263857
1.7089478633445107E12,1.9891304347826086,-6.434782608695652,2.6956521739130435,1.2225337293784297,31.355815691449127,32.57834942082756,482.2730764476152,583.8140551822252
1.708947863383574E12,1.9130434782608696,-6.554347826086956,2.7717391304347827,1.2292410408545782,31.336198608422112,32.56543964927669,482.2706964338656,583.8199691557847
1.7089478634031057E12,1.9239130434782608,-6.510869565217391,2.684782608695652,1.210056687600218,31.354012650729732,32.56406933832995,482.27502373159217,583.8138388173388
1.7089478634226372E12,1.967391304347826,-6.510869565217391,2.6630434782608696,1.2106336606304242,31.356392664479333,32.56702632510976,482.27545646136485,583.8196085476409
1.708947863442169E12,1.9891304347826086,-6.543478260869565,2.8369565217391304,1.1918820371487187,31.36879758462877,32.56067962177749,482.285048637992,583.8519911589613
1.7089478634617004E12,1.9782608695652173,-6.608695652173913,2.6956521739130435,1.201402092147123,31.363749070614464,32.56515116276159,482.286995921969,583.8827870944485
1.7089478634812322E12,1.9565217391304348,-6.58695652173913,2.684782608695652,1.2102730524865453,31.352930826298095,32.56320387878464,482.28137043492444,583.9092557322092
1.7089478635007637E12,1.967391304347826,-6.565217391304348,2.684782608695652,1.2039263491542755,31.34326652804214,32.547192877196416,482.28663531382506,583.9308200992132
1.7089478635202954E12,1.9782608695652173,-6.543478260869565,2.652173913043478,1.2122203364634916,31.334395567702717,32.54661590416621,482.2872844084841,583.9303152478118
1.708947863539827E12,1.9130434782608696,-6.521739130434782,2.608695652173913,1.2112106336606305,31.32184640429573,32.53305703795636,482.2820916512122,583.948562019892
1.7089478635593586E12,1.934782608695652,-6.510869565217391,2.684782608695652,1.2064506061614284,31.340453784519884,32.54690439068131,482.28324559727264,583.9436577491352
1.7089478635788904E12,1.9130434782608696,-6.478260869565217,2.652173913043478,1.2151052016145232,31.383366153641486,32.59847135525601,482.2888710843171,583.940195910954
1.7089478635984219E12,1.9130434782608696,-6.478260869565217,2.652173913043478,1.1983729837385397,31.445751362532544,32.644124346271084,482.2889432059459,583.9244012742521
1.7089478636179536E12,1.9130434782608696,-6.489130434782608,2.641304347826087,1.2314768113466277,31.4828218797233,32.71429869106993,482.28879896268836,583.8952641362267
1.708947863637485E12,1.9239130434782608,-6.489130434782608,2.684782608695652,1.2554211921001903,31.464286621127922,32.71970781322811,482.29449657136166,583.8899271356973
1.7089478636570168E12,1.9130434782608696,-6.510869565217391,2.6739130434782608,1.21892764793964,31.349829596260737,32.56875724420038,482.29803053117166,583.9160351653142
1.7089478636765483E12,1.9239130434782608,-6.456521739130435,2.6630434782608696,1.2227500942647571,31.314417876531824,32.53716797079658,482.29629961208104,583.9199297332681
1.70894786369608E12,1.9021739130434783,-6.445652173913043,2.684782608695652,1.2202258372576043,31.30900875437364,32.529234591631244,482.297597801399,583.9134387866782
1.7089478637156116E12,1.8804347826086956,-6.423913043478261,2.7282608695652173,1.060692794405555,31.341679852209076,32.40237264661463,482.2965159769674,583.9889501320065
1.7089478637351433E12,1.8804347826086956,-6.423913043478261,2.684782608695652,1.5224154618281678,31.91540740912049,33.43782287094866,482.29233292249836,583.9650057512529
1.708947863754675E12,1.891304347826087,-6.434782608695652,2.7065217391304346,1.6241069584020327,31.421374252006324,33.045481210408354,482.29831901768677,583.7830428818515
1.7089478637742065E12,1.8695652173913042,-6.423913043478261,2.5978260869565215,1.2546999758124324,31.10959245080858,32.36429242662101,482.29745355814146,584.0602784228657
1.7089478637937383E12,1.9130434782608696,-6.467391304347826,2.717391304347826,1.221091296802914,31.319033660773474,32.54012495757639,482.30127600446656,583.9219491388737
1.7089478638132698E12,1.826086956521739,-6.456521739130435,3.0,1.2112106336606305,31.35473386701749,32.56594450067812,482.3054590589356,583.8918744196742
1.7089478638328015E12,1.891304347826087,-6.434782608695652,2.7282608695652173,1.2111385120318547,31.36807636834101,32.57921488037287,482.30372813984496,583.865261538656
1.708947863852333E12,1.9456521739130435,-6.467391304347826,2.630434782608696,1.208614255024702,31.391948627465805,32.60056288249051,482.31094030272254,583.8762240262299
1.7089478638718647E12,1.9239130434782608,-6.423913043478261,2.8369565217391304,1.2151052016145232,31.41567664333304,32.63078184494756,482.31108454598007,583.8548039024835
1.7089478638913962E12,1.8804347826086956,-6.478260869565217,3.043478260869565,1.209696079456339,31.424331238786134,32.634027318242474,482.31238273529806,583.867208822633
1.708947863910928E12,1.858695652173913,-6.543478260869565,2.8152173913043477,1.2200094723712769,31.435437969617606,32.65544744198888,482.31433001927496,583.8511256994159
1.7089478639304597E12,1.8478260869565217,-6.58695652173913,2.8043478260869565,1.2363810821033816,31.42764883370982,32.6640299158132,482.3023578288982,583.8904319870987
1.7089478639499912E12,1.9021739130434783,-6.565217391304348,2.652173913043478,1.2534017864944682,31.40932994000077,32.66273172649524,482.30509845079166,583.9016829611877
1.708947863969523E12,1.9130434782608696,-6.489130434782608,2.7065217391304346,1.2702782476280032,31.40709416950872,32.67737241713672,482.3105796945786,583.9029811505058
1.7089478639890544E12,1.9565217391304348,-6.4021739130434785,2.75,1.2878759250492962,31.453612620069105,32.7414885451184,482.308848775488,583.8571117946043
1.7089478640085862E12,1.9565217391304348,-6.33695652173913,2.8369565217391304,1.2468387182758711,31.470200594687537,32.71703931296341,482.313680924616,583.8379995629788
1.7089478640281177E12,1.9565217391304348,-6.391304347826087,2.9456521739130435,1.2019069435485534,31.47972064968594,32.681627593234495,482.3118778838966,583.8000635862427
1.7089478640476494E12,1.891304347826087,-6.5,2.8260869565217392,1.2026281598363113,31.449718052115212,32.652346211951524,482.32284037147053,583.801866626962
1.708947864067181E12,1.9456521739130435,-6.456521739130435,2.75,1.1939014427544408,31.449141079085006,32.64304252183945,482.32219127681157,583.8058333165447
1.7089478640867126E12,1.934782608695652,-6.467391304347826,2.75,1.18928565851279,31.457867796166877,32.64715345467967,482.3152676004491,583.801866626962
1.7089478641062444E12,1.891304347826087,-6.413043478260869,2.9565217391304346,1.192098402035046,31.481379447147784,32.67347784918283,482.3177918574562,583.7981884238945
1.708947864125776E12,1.9456521739130435,-6.5,2.934782608695652,1.1827225902941931,31.479432163170838,32.66215475346503,482.3172870060548,583.7802301383293
1.7089478641453076E12,1.9782608695652173,-6.510869565217391,2.9456521739130435,1.187554739422171,31.468036945824263,32.655591685246435,482.30553118056434,583.7664549072332
1.708947864164839E12,1.967391304347826,-6.5,2.858695652173913,1.177601954651112,31.479504284799614,32.65710623945073,482.3211815740087,583.759747595757
1.7089478641843708E12,1.934782608695652,-6.510869565217391,2.8369565217391304,1.17421223809865,31.47993701457227,32.65414925267092,482.3237779526446,583.7550596898866
1.7089478642039023E12,1.9239130434782608,-6.467391304347826,2.9239130434782608,1.1680818996527076,31.532441560321043,32.70052345997375,482.3195227765468,583.74719843235
1.708947864223434E12,1.858695652173913,-6.434782608695652,2.902173913043478,1.1926032534364766,31.566843577247095,32.75944683068357,482.3246434121899,583.7226770785662
1.7089478642429658E12,1.9239130434782608,-6.413043478260869,2.9239130434782608,1.2087584982822537,31.58335943023675,32.792117928519005,482.317214884426,583.7043581848571
1.7089478642624973E12,1.9130434782608696,-6.380434782608695,3.043478260869565,1.1794049953705068,31.485274015101677,32.664679010472184,482.3290428315452,583.7325577417085
1.708947864282029E12,1.9021739130434783,-6.423913043478261,2.934782608695652,1.1869777663919647,31.458949620598514,32.64592738699048,482.3247155338187,583.7131570235679
1.7089478643015605E12,1.9130434782608696,-6.4021739130434785,2.967391304347826,1.172769805523134,31.439909510601705,32.61267931612484,482.3265906961669,583.7195758485288
1.7089478643210923E12,1.9239130434782608,-6.423913043478261,2.9891304347826084,1.1035330418983749,31.395843195419694,32.49937623731807,482.3331537643855,583.7415008236767
1.7089478643406238E12,1.9021739130434783,-6.423913043478261,3.032608695652174,1.3760085554133126,31.896150934237355,33.27215948965067,482.33113435877976,583.7390486882983
1.7089478643601555E12,1.9130434782608696,-6.4021739130434785,2.967391304347826,1.788111542238181,32.147278445634655,33.93538998787284,482.33019677760564,583.5902617681339
1.708947864379687E12,1.9239130434782608,-6.391304347826087,2.9130434782608696,1.1714716162051697,31.24460413987686,32.41607575608203,482.3334422509006,583.8161467094596
1.7089478643992188E12,1.9456521739130435,-6.380434782608695,2.902173913043478,1.1612303449190076,31.355166596790145,32.516396941709154,482.336831967453,583.7834756116242
1.7089478644187505E12,1.9239130434782608,-6.358695652173913,3.119565217391304,1.166927953592295,31.44257801086641,32.609505964458705,482.3307016290071,583.7006078601609
1.708947864438282E12,1.858695652173913,-6.33695652173913,3.2391304347826084,1.170029183629654,31.46774845930916,32.637777642938815,482.32911495317404,583.6939726703134
1.7089478644578137E12,1.9239130434782608,-6.304347826086956,2.880434782608696,1.1708225215461876,31.473518189611223,32.64434071115741,482.3287543450301,583.6891405211855
1.7089478644773452E12,1.934782608695652,-6.315217391304348,3.0869565217391304,1.1754383057878384,31.484913406957798,32.66035171274564,482.3293313180603,583.7007521034184
1.708947864496877E12,1.8804347826086956,-6.391304347826087,3.2391304347826084,1.1879874691948258,31.48880797491169,32.67679544410652,482.3341634671883,583.7007521034184
1.7089478645164084E12,1.8804347826086956,-6.5,3.0217391304347827,1.2163312693037116,31.511309923089737,32.72764119239345,482.3319998183251,583.7078921446672
1.7089478645359402E12,1.8804347826086956,-6.532608695652174,2.9456521739130435,1.2283755813092687,31.503665030439503,32.73204061174877,482.3219749119252,583.7319807686783
1.7089478645554717E12,1.9130434782608696,-6.554347826086956,2.9565217391304346,1.2778510186494612,31.455848390561155,32.733699409210615,482.31324819484337,583.7753979892013
1.7089478645750034E12,1.9130434782608696,-6.489130434782608,2.880434782608696,1.2963141556160636,31.447410159994387,32.74372431561045,482.3244270473036,583.7881635174947
1.7089478645945352E12,1.9239130434782608,-6.380434782608695,2.891304347826087,1.3040311698950733,31.467964824195487,32.77199599409056,482.333298007643,583.7664549072332
