Shimmer_6D72_TimestampSync_Unix_CAL,Shimmer_6D72_Accel_LN_X_CAL,Shimmer_6D72_Accel_LN_Y_CAL,Shimmer_6D72_Accel_LN_Z_CAL,Shimmer_6D72_ECG_LA-RA_24BIT_CAL,Shimmer_6D72_ECG_LL-LA_24BIT_CAL,Shimmer_6D72_ECG_LL-RA_24BIT_CAL,Shimmer_6D72_ECG_RESP_24BIT_CAL,Shimmer_6D72_ECG_Vx-RL_24BIT_CAL
ms,m/(s^2),m/(s^2),m/(s^2),mV,mV,mV,mV,mV
1.7104021099357742E12,2.4130434782608696,-6.0978260869565215,4.8478260869565215,-7.9775176021477705,64.54402560520478,56.56650800305701,493.7816689946257,575.1377511188688
1.710402109955306E12,2.4239130434782608,-6.08695652173913,4.804347826086956,-7.983431575707385,64.53602010441067,56.55258852870328,493.7782792780733,575.1397705244744
1.7104021099748376E12,2.4239130434782608,-6.054347826086956,4.804347826086956,-7.981772778245542,64.53421706369127,56.55244428544573,493.77589926432364,575.1534736339419
1.7104021099943696E12,2.4130434782608696,-6.054347826086956,4.782608695652174,-7.987614630176381,64.53154856342657,56.54393393325019,493.74113663925374,575.155709404434
1.7104021100139014E12,2.380434782608696,-6.065217391304348,4.815217391304348,-7.990787981842516,64.52109092725408,56.53030294541156,493.7697689258777,575.1693403922726
1.710402110033433E12,2.391304347826087,-6.0978260869565215,4.826086956521739,-7.992158292789257,64.51301330483119,56.520855012041935,493.7718604531122,575.1692682706438
1.710402110052965E12,2.380434782608696,-6.1521739130434785,4.804347826086956,-7.986532805744744,64.51640302138365,56.52987021563891,493.77056226379426,575.153113025798
1.7104021100724968E12,2.391304347826087,-6.0978260869565215,4.815217391304348,-7.982566116162076,64.51459998066426,56.53203386450218,493.76911983121875,575.1534736339419
1.7104021100920286E12,2.402173913043478,-6.130434782608695,4.782608695652174,-7.986244319229641,64.5135902778614,56.527345958631756,493.7645040469771,575.160830040077
1.7104021101115605E12,2.380434782608696,-6.108695652173913,4.815217391304348,-7.997495293318665,64.52714914407125,56.52965385075258,493.72166379948425,575.1658064324625
1.7104021101310923E12,2.380434782608696,-6.0978260869565215,4.83695652173913,-7.986172197600865,64.52448064380654,56.538308446205676,493.7180577180455,575.1564306207217
1.7104021101506243E12,2.391304347826087,-6.119565217391304,4.83695652173913,-7.995836495856822,64.53154856342657,56.53571206756975,493.7247650295216,575.1497233092456
1.710402110170156E12,2.402173913043478,-6.0978260869565215,4.8478260869565215,-7.993889211879876,64.51993698119367,56.52604776931379,493.7305347598237,575.155060309775
1.7104021101896877E12,2.391304347826087,-6.108695652173913,4.858695652173913,-7.989561914153327,64.51690787278508,56.527345958631756,493.7372420712998,575.1430159977693
1.7104021102092197E12,2.402173913043478,-6.108695652173913,4.83695652173913,-7.986965535517399,64.51517695369446,56.528211418177065,493.72202440762817,575.1586663912137
1.7104021102287515E12,2.4130434782608696,-6.0978260869565215,4.880434782608695,-7.9847297650253495,64.55592567395279,56.571195908927436,493.73233780054306,575.1534015123132
1.7104021102482832E12,2.4239130434782608,-6.130434782608695,4.858695652173913,-7.959631438211375,64.54669410546948,56.58706266725811,493.72108682645404,575.1651573378035
1.7104021102678152E12,2.4239130434782608,-6.119565217391304,4.83695652173913,-7.9634538845364915,64.51553756183834,56.55208367730185,493.7135140554326,575.1668882568941
1.710402110287347E12,2.4239130434782608,-6.119565217391304,4.826086956521739,-7.9716757502169315,64.48178463957127,56.51010888935434,493.72000500202245,575.1642197566294
1.7104021103068787E12,2.4456521739130435,-6.08695652173913,4.793478260869565,-8.00578928062788,64.48921316733518,56.4834238867073,493.72563048906693,575.1616954996223
1.7104021103264106E12,2.391304347826087,-6.076086956521739,4.793478260869565,-7.99792802309132,64.47861128790514,56.48068326481382,493.7302462733086,575.1777786228394
1.7104021103459424E12,2.402173913043478,-6.0978260869565215,4.83695652173913,-8.006149888771759,64.48503011286618,56.478880224094425,493.68776663395965,575.1697731220452
1.710402110365474E12,2.4130434782608696,-6.141304347826087,4.782608695652174,-7.978960034723286,64.45423417737892,56.475274142655636,493.68538662021007,575.2285522494975
1.710402110385006E12,2.4456521739130435,-6.130434782608695,4.75,-7.840847115617647,65.21100642812328,57.37015931250564,493.70889827119095,574.9467009242417
1.7104021104045378E12,2.4347826086956523,-6.119565217391304,4.934782608695652,-8.088873396977592,65.20675125202553,57.11787785504793,493.7295971786496,574.6166723509637
1.7104021104240696E12,2.3260869565217392,-6.076086956521739,4.934782608695652,-8.074593314479985,64.51748484581529,56.4428915313353,493.6976472971019,575.1026278856549
1.7104021104436016E12,2.3369565217391304,-6.119565217391304,4.684782608695652,-7.979537007753493,64.54085225353865,56.56131524578515,493.7011812569119,575.1821780421947
1.7104021104631333E12,2.282608695652174,-6.163043478260869,4.9021739130434785,-7.980330345670026,64.5275818738439,56.547251528173874,493.72945293539203,575.205545449918
1.710402110482665E12,2.391304347826087,-6.065217391304348,4.804347826086956,-7.979320642867165,64.5299618875935,56.550641244726336,493.7430839232307,575.2100891125309
1.710402110502197E12,2.369565217391304,-6.010869565217392,4.771739130434782,-7.969872709497537,64.532053414828,56.56218070533046,493.7456081802378,575.2029490712821
1.7104021105217288E12,2.217391304347826,-6.065217391304348,4.858695652173913,-7.960857505900563,64.54503530800764,56.58417780210708,493.694401823807,575.225811627604
1.7104021105412607E12,2.25,-6.119565217391304,4.83695652173913,-7.94686590991806,64.54950684899174,56.60264093907368,493.74171361228395,575.2392983721851
1.7104021105607925E12,2.3260869565217392,-6.184782608695652,4.880434782608695,-7.914483298597729,64.55123776808236,56.63675446948463,493.71459587986425,575.2716088618766
1.7104021105803242E12,2.3260869565217392,-6.1521739130434785,4.9021739130434785,-7.890611039472943,64.57301849997265,56.682407460499704,493.7249092727792,575.3111315144457
1.7104021105998562E12,2.3043478260869565,-6.0978260869565215,4.826086956521739,-7.8174075862655155,64.5966743942111,56.77926680794559,493.72649594861224,575.3740215747382
1.710402110619388E12,2.293478260869565,-6.076086956521739,4.815217391304348,-7.791948651307661,64.60857446295911,56.81662581165145,493.7350063008078,575.3815943457597
1.7104021106389197E12,2.3043478260869565,-6.054347826086956,4.815217391304348,-7.770312162674924,64.64312072314272,56.87280856046779,493.68033810619573,575.3673863848909
1.7104021106584517E12,2.3043478260869565,-6.054347826086956,4.771739130434782,-7.854550225085047,64.6276866945847,56.77313646949965,493.66771682115996,575.2823549845642
1.7104021106779834E12,2.3152173913043477,-6.0978260869565215,4.83695652173913,-7.925445786171649,64.56530148569364,56.63985569952199,493.6885599718762,575.2242970733997
1.7104021106975151E12,2.3260869565217392,-6.0978260869565215,4.880434782608695,-7.997855901462544,64.49887746559114,56.50102156412859,493.6676446995312,575.1810240961343
1.710402110717047E12,2.3260869565217392,-6.141304347826087,4.880434782608695,-8.013939024679544,64.47010093570958,56.456161911030044,493.6477391299891,575.1770574065516
1.7104021107365789E12,2.282608695652174,-6.130434782608695,4.793478260869565,-8.029589418123892,64.46844213824775,56.438852720123855,493.6703131997959,575.1611906482209
1.7104021107561106E12,2.3043478260869565,-6.141304347826087,4.978260869565217,-8.031969431873494,64.46577363798305,56.43380420610955,493.66988047002326,575.1640755133719
1.7104021107756426E12,2.358695652173913,-6.043478260869565,4.793478260869565,-8.039542202894951,64.48582345078272,56.44628124788776,493.6807708359684,575.1779228660969
1.7104021107951743E12,2.282608695652174,-6.043478260869565,4.684782608695652,-8.034493688880646,64.47666400392819,56.44217031504754,493.68956967467903,575.1780671093544
1.710402110814706E12,2.260869565217391,-6.010869565217392,4.9021739130434785,-8.029373053237565,64.48135190979862,56.45197885656105,493.7288759623618,575.1860726101486
1.710402110834238E12,2.3369565217391304,-6.076086956521739,4.793478260869565,-8.02757001251817,64.46296089446079,56.43539088194262,493.7168316503563,575.1857841236334
1.7104021108537698E12,2.369565217391304,-6.0978260869565215,4.804347826086956,-8.035359148425956,64.44226198700214,56.40690283857618,493.70709523047157,575.1919144620794
1.7104021108733015E12,2.293478260869565,-6.108695652173913,4.8478260869565215,-8.04127312198557,64.44190137885826,56.400628256872686,493.65170581957176,575.1860004885198
1.7104021108928335E12,2.369565217391304,-6.108695652173913,4.739130434782608,-8.030599120926754,64.42805402613331,56.39745490520655,493.6655531722967,575.1915538539355
1.7104021109123652E12,2.293478260869565,-6.0978260869565215,4.9021739130434785,-8.04264343293231,64.43555467552599,56.39291124259368,493.67341442983326,575.2034539226835
1.7104021109318972E12,2.3152173913043477,-6.108695652173913,4.858695652173913,-8.039181594751073,64.43447285109436,56.39529125634328,493.6724047270304,575.1958811516621
1.710402110951429E12,2.380434782608696,-6.08695652173913,4.793478260869565,-8.04487920342436,64.4361316485562,56.39125244513183,493.6518500628293,575.1961696381771
1.7104021109709607E12,2.3260869565217392,-6.108695652173913,4.8478260869565215,-8.041850095015777,64.43490558086701,56.39305548585123,493.6279056820757,575.2058339364331
1.7104021109904927E12,2.3260869565217392,-6.0978260869565215,4.858695652173913,-8.03990281103883,64.43360739154905,56.39370458051021,493.6211262489708,575.2006411791613
1.7104021110100244E12,2.391304347826087,-6.119565217391304,4.880434782608695,-8.024468782480811,64.4340401213217,56.409571338840884,493.63836331824825,575.1966744895786
1.7104021110295562E12,2.380434782608696,-6.141304347826087,4.858695652173913,-8.021944525473657,64.44096379768416,56.41901927221051,493.65963919873707,575.1981890437829
1.7104021110490881E12,2.3260869565217392,-6.108695652173913,4.934782608695652,-8.02706516111674,64.4659178812406,56.438852720123855,493.66930349699305,575.2123970046517
1.7104021110686199E12,2.369565217391304,-6.08695652173913,4.913043478260869,-8.027786377404498,64.46930759779306,56.44152122038856,493.6821411469151,575.2135509507121
1.7104021110881516E12,2.380434782608696,-6.054347826086956,4.891304347826087,-8.025983336685103,64.47363489551961,56.4476515588345,493.6872617825582,575.2117479099927
1.7104021111076836E12,2.380434782608696,-6.054347826086956,4.826086956521739,-8.007015348317069,64.46404271889241,56.457027370575354,493.66800530767506,575.2108103288186
1.7104021111272153E12,2.4130434782608696,-6.065217391304348,4.858695652173913,-8.001534104530108,64.48726588335823,56.485731778828125,493.6900024044517,575.2032375577971
1.710402111146747E12,2.391304347826087,-6.0978260869565215,4.891304347826087,-7.978743669836959,64.47947674745045,56.50073307761349,493.6714671458563,575.2088630448417
1.710402111166279E12,2.4239130434782608,-6.0978260869565215,4.815217391304348,-7.976075169572255,64.43786256764682,56.461787398074556,493.71639892058363,575.2227103975666
1.7104021111858108E12,2.3478260869565215,-6.0978260869565215,4.858695652173913,-8.019780876610383,64.42812614776207,56.408345271151695,493.719500150621,575.2253067762026
1.7104021112053425E12,2.282608695652174,-6.0978260869565215,4.83695652173913,-8.037883405433108,64.41903882253634,56.38115541710322,493.6997388243364,575.2304274118457
1.7104021112248745E12,2.3152173913043477,-6.076086956521739,4.83695652173913,-8.023098471534071,64.40973513242426,56.38663666089018,493.72029348853755,575.2330237904816
1.7104021112444062E12,2.3478260869565215,-6.076086956521739,4.793478260869565,-8.021511795701002,64.41932730905143,56.39781551335043,493.686684809528,575.2430486968814
1.710402111263938E12,2.2717391304347827,-6.108695652173913,4.804347826086956,-7.983431575707385,64.39963810439565,56.41620652868826,493.68336721460435,575.3148818391421
1.71040211128347E12,2.2282608695652173,-6.0978260869565215,4.83695652173913,-7.886788593147826,65.33411804844356,57.44732945529574,493.6933199993754,574.9002545953101
1.7104021113030017E12,2.260869565217391,-6.1521739130434785,4.934782608695652,-8.151258605868652,65.10433853916389,56.95307993329524,493.6968539591854,574.6843224387553
1.7104021113225337E12,2.2391304347826084,-6.108695652173913,4.83695652173913,-8.077694544517344,64.48820346453232,56.41050892001497,493.7052921897522,575.2031654361684
1.7104021113420654E12,2.217391304347826,-6.130434782608695,4.880434782608695,-7.991004346728843,64.50212293888605,56.5111185921572,493.71192737959956,575.2710318888464
1.7104021113615972E12,2.25,-6.130434782608695,4.83695652173913,-7.970810290671622,64.49137681619845,56.52056652552683,493.6858193499827,575.3049290543711
1.7104021113811292E12,2.358695652173913,-6.054347826086956,4.826086956521739,-7.9692957364673305,64.48769861313089,56.51840287666356,493.68646844464166,575.3099775683853
1.710402111400661E12,2.282608695652174,-6.010869565217392,4.913043478260869,-7.972973939534896,64.50068050631053,56.527706566775635,493.6941133372919,575.3121412172486
1.7104021114201926E12,2.2717391304347827,-6.054347826086956,4.826086956521739,-7.932730070678005,64.48091918002596,56.54818910934796,493.6998109459652,575.3034866217955
1.7104021114397246E12,2.3152173913043477,-6.065217391304348,4.83695652173913,-7.931287638102489,64.4939010732056,56.56261343510312,493.6798332547943,575.3242576508829
1.7104021114592563E12,2.380434782608696,-6.119565217391304,4.869565217391305,-7.882244930534951,64.49440592460704,56.612160994072084,493.6604325366536,575.3606790734148
1.710402111478788E12,2.369565217391304,-6.141304347826087,4.8478260869565215,-7.846761089177262,64.49714654650052,56.65038545732325,493.6667071183571,575.3849119406834
1.71040211149832E12,2.358695652173913,-6.130434782608695,4.815217391304348,-7.79281411085297,64.53457767183515,56.74176356098218,493.64925368419335,575.4307812965848
1.7104021115178518E12,2.380434782608696,-6.0978260869565215,4.793478260869565,-7.758484215555694,64.56551785057997,56.80703363502427,493.62970872279516,575.4453498655976
1.7104021115373835E12,2.380434782608696,-6.119565217391304,4.771739130434782,-7.751344174306891,64.58592827152351,56.83458409721662,493.65877373919176,575.4244345932525
1.7104021115569155E12,2.3369565217391304,-6.08695652173913,4.782608695652174,-7.840558629102544,64.56667179664038,56.72611316753783,493.6846654039223,575.3283685837232
1.7104021115764473E12,2.380434782608696,-6.0978260869565215,4.826086956521739,-7.904963243599325,64.5120757236571,56.60711248005778,493.63136752025696,575.2706712807026
1.710402111595979E12,2.391304347826087,-6.076086956521739,4.83695652173913,-7.995548009341719,64.47168761154266,56.476139602200945,493.68351145786187,575.2389377640412
1.710402111615511E12,2.402173913043478,-6.108695652173913,4.83695652173913,-7.998360752863975,64.44940202825094,56.45104127538696,493.68416055252084,575.2304274118457
1.7104021116350427E12,2.358695652173913,-6.141304347826087,4.771739130434782,-8.01725661960323,64.43952136510865,56.42226474550542,493.68733390418697,575.2380001828672
1.7104021116545745E12,2.4239130434782608,-6.130434782608695,4.934782608695652,-8.023314836420399,64.44557958192583,56.42226474550542,493.64074333199784,575.2355480474887
1.7104021116741064E12,2.4456521739130435,-6.08695652173913,4.880434782608695,-8.015742065398939,64.45156567711422,56.43582361171527,493.6128322616616,575.2268213304069
1.7104021116936382E12,2.4239130434782608,-6.119565217391304,4.673913043478261,-8.007015348317069,64.45358508271994,56.446569734402864,493.6453591162395,575.2252346545738
1.7104021117131702E12,2.3152173913043477,-6.076086956521739,5.021739130434782,-8.022593620132639,64.4685863815053,56.44599276137266,493.62047715431186,575.2310765065047
1.710402111732702E12,2.380434782608696,-6.119565217391304,4.858695652173913,-8.026704552972861,64.46014815093854,56.43344359796567,493.6318723716584,575.2433371833965
1.7104021117522336E12,2.4347826086956523,-6.141304347826087,4.858695652173913,-8.022593620132639,64.44853656870563,56.42594294857299,493.6378584668468,575.2343941014283
1.7104021117717656E12,2.380434782608696,-6.0978260869565215,4.913043478260869,-8.025334242026121,64.4483202038193,56.42298596179318,493.6435560755201,575.2372789665793
1.7104021117912974E12,2.380434782608696,-6.065217391304348,4.782608695652174,-8.03442156725187,64.45646994787097,56.422048380619096,493.64146454828557,575.2403801966167
1.710402111810829E12,2.369565217391304,-6.054347826086956,4.858695652173913,-8.024108174336932,64.4379346892756,56.413826514938656,493.64867671116315,575.2384329126397
1.710402111830361E12,2.4239130434782608,-6.1521739130434785,4.891304347826087,-8.0325464049037,64.4292800938225,56.39673368891879,493.65906222570686,575.2359086556327
1.7104021118498928E12,2.391304347826087,-6.1521739130434785,4.826086956521739,-8.024036052708157,64.40266721280423,56.37863116009607,493.6506239951401,575.222277667794
1.7104021118694246E12,2.3152173913043477,-6.173913043478261,4.913043478260869,-8.024757268995915,64.40201811814525,56.37726084914933,493.6724768486592,575.2108824504475
1.7104021118889565E12,2.3152173913043477,-6.119565217391304,4.858695652173913,-8.025839093427551,64.39660899598707,56.37076990255951,493.6239389924931,575.2118921532502
1.7104021119084883E12,2.3478260869565215,-6.141304347826087,4.760869565217392,-8.022377255246312,64.39783506367624,56.375457808429935,493.66274042877444,575.2206188703321
1.71040211192802E12,2.3260869565217392,-6.130434782608695,4.826086956521739,-8.035142783539628,64.43173222920088,56.39658944566124,493.69101210725455,575.2171570321509
1.710402111947552E12,2.3152173913043477,-6.119565217391304,4.815217391304348,-8.048196798348046,64.44319956817623,56.395002769828174,493.6834393362331,575.2196091675293
1.7104021119670837E12,2.3260869565217392,-6.119565217391304,4.771739130434782,-8.046538000886203,64.44139652745683,56.39485852657062,493.6760108084692,575.245140224116
1.7104021119866155E12,2.293478260869565,-6.0978260869565215,4.804347826086956,-8.042354946417207,64.43504982412456,56.39269487770735,493.68178053877125,575.2535784546827
1.7104021120061475E12,2.293478260869565,-6.0978260869565215,4.815217391304348,-8.049927717438665,64.43973772999499,56.38981001255632,493.67968901153677,575.2638197259688
1.7104021120256792E12,2.358695652173913,-6.119565217391304,4.826086956521739,-8.060962326641361,64.43577104041232,56.37480871377095,493.6601440501385,575.2598530363862
1.710402112045211E12,2.358695652173913,-6.108695652173913,4.8478260869565215,-8.051298028385405,64.41752426833204,56.366226239946634,493.6648319560089,575.2743494837702
1.710402112064743E12,2.369565217391304,-6.108695652173913,4.880434782608695,-8.061899907815446,64.43274193200374,56.370842024188285,493.66093738805506,575.2586990903258
1.7104021120842747E12,2.380434782608696,-6.141304347826087,4.83695652173913,-8.032618526532476,64.43807893253314,56.405460406000664,493.65653796869975,575.2629542664235
1.7104021121038066E12,2.3369565217391304,-6.141304347826087,4.8478260869565215,-8.04300404107619,64.46425908377876,56.42125504270256,493.6528597656322,575.2519196572208
1.7104021121233384E12,2.3369565217391304,-6.108695652173913,4.8478260869565215,-8.028219107177152,64.48777073475966,56.459551627582506,493.65761979313135,575.2456450755174
1.71040211214287E12,2.3478260869565215,-6.119565217391304,4.880434782608695,-8.030094269525323,64.43923287859356,56.40913860906823,493.63439662866557,575.2701664293011
1.710402112162402E12,2.358695652173913,-6.0978260869565215,4.804347826086956,-8.065289624367908,64.42978494522393,56.364495320856015,493.647450643474,575.2643245773703
1.7104021121819338E12,2.293478260869565,-6.054347826086956,4.83695652173913,-8.086781869743094,64.44334381143378,56.35656194169068,493.653869468435,575.2787489031255
1.7104021122014656E12,2.282608695652174,-6.08695652173913,4.8478260869565215,-8.073006638646918,64.43706922973028,56.36406259108336,493.63122327699944,575.2773064705499
1.7104021122209976E12,2.293478260869565,-6.173913043478261,4.804347826086956,-8.065650232511787,64.4045423751524,56.33889214264061,493.65711494172996,575.3000247836143
1.7104021122405293E12,2.2717391304347827,-6.1521739130434785,4.782608695652174,-7.987830995062708,64.40944664590916,56.42161565084644,493.66540892903913,575.4260212690856
1.710402112260061E12,2.2391304347826084,-6.076086956521739,4.804347826086956,-7.95148169415971,65.49473291572725,57.543251221567544,493.6550234144954,574.8439276032362
1.710402112279593E12,2.293478260869565,-6.08695652173913,4.913043478260869,-8.272350820583204,64.76522264066013,56.49287182007693,493.64846034627686,574.9278771791312
1.7104021122991248E12,2.3152173913043477,-6.076086956521739,4.706521739130435,-8.174049040561801,64.52087456236775,56.34682552180595,493.6780302140749,575.2310043848759
1.7104021123186565E12,2.141304347826087,-6.130434782608695,4.891304347826087,-8.059375650808294,64.52599519801083,56.466619547202534,493.64896519767825,575.3404850173575
1.7104021123381885E12,2.217391304347826,-6.065217391304348,4.858695652173913,-8.06182778618667,64.5350104016078,56.47318261542114,493.64002211571005,575.3543323700825
1.7104021123577202E12,2.358695652173913,-6.065217391304348,4.663043478260869,-8.041850095015777,64.53104371202514,56.48919361700936,493.65834100941913,575.3686124525801
1.710402112377252E12,2.3043478260869565,-6.065217391304348,4.782608695652174,-8.029733661381444,64.5270049008137,56.49727123943225,493.6482439813905,575.3719300475037
1.710402112396784E12,2.260869565217391,-6.163043478260869,4.630434782608695,-8.01898753869385,64.52693277918492,56.50794524049107,493.6793284033929,575.3931338063638
1.7104021124163157E12,2.3043478260869565,-6.173913043478261,4.728260869565217,-8.013939024679544,64.5231103328598,56.50917130818026,493.6863963230129,575.4170781871175
1.7104021124358474E12,2.3043478260869565,-6.184782608695652,4.815217391304348,-7.987903116691484,64.51546544020957,56.52756232351808,493.66504832089527,575.4279685530626
1.7104021124553794E12,2.3152173913043477,-6.163043478260869,4.739130434782608,-7.945351355713768,64.52541822498063,56.58006686926686,493.675433835439,575.4819876530156
1.7104021124749111E12,2.3152173913043477,-6.0978260869565215,4.75,-7.8883752689808935,64.5386164830466,56.6502412140657,493.641969399687,575.5043453579361
1.710402112494443E12,2.293478260869565,-6.043478260869565,4.728260869565217,-7.8424337914507145,64.55787295792973,56.715439166479015,493.6724768486592,575.5425698211873
1.7104021125139749E12,2.293478260869565,-6.065217391304348,4.75,-7.8427943995945935,64.57864398701716,56.735849587422564,493.67197199725774,575.5250442653947
1.7104021125335066E12,2.3043478260869565,-6.08695652173913,4.75,-7.955448383742379,64.53551525300924,56.58006686926686,493.7022630813436,575.429122499123
1.7104021125530386E12,2.3260869565217392,-6.065217391304348,4.75,-8.022016647102433,64.4673603138161,56.445343666713676,493.675433835439,575.3828925350776
1.7104021125725703E12,2.3478260869565215,-6.08695652173913,4.75,-8.041922216644553,64.41593759249898,56.37401537585442,493.6812756873698,575.3544044917112
1.710402112592102E12,2.3152173913043477,-6.108695652173913,4.826086956521739,-8.059303529179518,64.37699191296005,56.31768838378053,493.70449885183564,575.3391147064108
1.710402112611634E12,2.3478260869565215,-6.141304347826087,4.684782608695652,-8.084401855993493,64.3887477384505,56.30434588245701,493.6661301453269,575.3422159364482
1.7104021126311658E12,2.25,-6.108695652173913,4.967391304347826,-8.091181289098417,64.40713875378833,56.31595746468991,493.6846654039223,575.3503656804997
1.7104021126506975E12,2.4456521739130435,-6.054347826086956,4.641304347826087,-8.088152180689834,64.41038422708324,56.3222320463934,493.6872617825582,575.3551978296277
1.7104021126702295E12,2.3152173913043477,-6.076086956521739,4.608695652173913,-8.080579409668376,64.4221400525737,56.341560642905314,493.67853506547635,575.342576544592
1.7104021126897612E12,2.260869565217391,-6.076086956521739,4.956521739130435,-8.090460072810659,64.41709153855939,56.326631465748726,493.691516958656,575.3373837873202
1.710402112709293E12,2.3152173913043477,-6.184782608695652,4.771739130434782,-8.086709748114318,64.39826779344891,56.311558045334586,493.703417027404,575.3290176783821
1.710402112728825E12,2.3478260869565215,-6.1521739130434785,4.760869565217392,-8.078487882433878,64.39076714405623,56.31227926162234,493.75520035686503,575.3188485287247
1.7104021127483567E12,2.282608695652174,-6.0978260869565215,4.760869565217392,-8.075170287510192,64.39069502242745,56.315524734917254,493.77676472386895,575.315242447286
1.7104021127678884E12,2.3152173913043477,-6.108695652173913,4.75,-8.08187759898634,64.39971022602442,56.31783262703808,493.7724374261424,575.3288734351246
1.7104021127874204E12,2.2717391304347827,-6.141304347826087,4.793478260869565,-8.083824882963286,64.38593499492825,56.30211011196496,493.783832643489,575.3269261511476
1.7104021128069521E12,2.3152173913043477,-6.141304347826087,4.782608695652174,-8.105894101368678,64.37944404833843,56.273549946969744,493.7528203431154,575.3379607603504
1.710402112826484E12,2.282608695652174,-6.1521739130434785,4.771739130434782,-8.095364343567413,64.36725549307532,56.2718911495079,493.7581573436448,575.3407013822439
1.7104021128460159E12,2.293478260869565,-6.141304347826087,4.815217391304348,-8.09882618174865,64.38240103511824,56.28357485336958,493.771283480082,575.3497165858408
1.7104021128655476E12,2.293478260869565,-6.119565217391304,4.771739130434782,-8.093056451446587,64.37374643966514,56.28068998821855,493.73897299039044,575.3324795165634
1.7104021128850796E12,2.293478260869565,-6.108695652173913,4.771739130434782,-8.099403154778857,64.37143854754432,56.27203539276545,493.72649594861224,575.3366625710324
1.7104021129046113E12,2.282608695652174,-6.130434782608695,4.826086956521739,-8.082166085501443,64.36336092512143,56.28119483961998,493.75750824898586,575.3409898687589
1.710402112924143E12,2.282608695652174,-6.141304347826087,4.815217391304348,-8.091109167469641,64.36646215515879,56.27535298768914,493.7368093415272,575.337455908949
1.710402112943675E12,2.293478260869565,-6.0978260869565215,4.804347826086956,-8.078055152661223,64.36877004727961,56.29071489461838,493.73954996342064,575.3533947889084
1.7104021129632068E12,2.25,-6.08695652173913,4.739130434782608,-8.067741759746285,64.3518214645173,56.28407970477101,493.7204377317951,575.3543323700825
1.7104021129827385E12,2.293478260869565,-6.119565217391304,4.804347826086956,-8.057788974975226,64.41182665965876,56.354037684683526,493.70168610831337,575.3556305594004
1.7104021130022705E12,2.282608695652174,-6.0978260869565215,4.858695652173913,-8.035214905168404,64.39127199545766,56.35605709028925,493.6807708359684,575.3507984102724
1.7104021130218022E12,2.3152173913043477,-6.130434782608695,4.869565217391305,-8.03853250009209,64.39689748250217,56.35836498241007,493.6900024044517,575.3580826947788
1.710402113041334E12,2.3260869565217392,-6.119565217391304,4.717391304347826,-8.034277323994319,64.33032921914211,56.29605189514779,493.7360881252394,575.3766179533742
1.710402113060866E12,2.282608695652174,-6.054347826086956,4.760869565217392,-8.072646030503039,64.32506434024148,56.25241830973844,493.73875662550415,575.3751755207986
1.7104021130803977E12,2.2717391304347827,-6.08695652173913,4.804347826086956,-8.064279921565047,64.32535282675659,56.26107290519153,493.7365208550121,575.393061684735
1.7104021130999294E12,2.3260869565217392,-6.119565217391304,4.782608695652174,-8.072501787245487,64.33270923289172,56.26020744564622,493.70536431138095,575.3880131707208
1.7104021131194614E12,2.2717391304347827,-6.108695652173913,4.815217391304348,-8.030454877669202,64.31540004198553,56.28494516431632,493.7394778417919,575.4408783246134
1.7104021131389932E12,2.293478260869565,-6.08695652173913,4.771739130434782,-7.902727473107276,64.62458546454734,56.72185799144006,493.691516958656,575.4270309718885
1.710402113158525E12,2.3152173913043477,-6.08695652173913,4.782608695652174,-8.017400862860782,65.56368119283691,57.54628032997613,493.68365570111945,574.7324275651488
1.710402113178057E12,2.2717391304347827,-6.065217391304348,4.869565217391305,-8.206143165367028,64.42884736404984,56.22270419868281,493.6702410781671,575.1756870956049
1.7104021131975886E12,2.4239130434782608,-6.108695652173913,4.782608695652174,-8.065505989254236,64.41478364643856,56.349277657184324,493.6851702553237,575.3745264261397
1.7104021132171204E12,2.1847826086956523,-6.217391304347826,4.891304347826087,-8.047980433461719,64.41204302454508,56.36406259108336,493.72108682645404,575.4213333632151
1.7104021132366523E12,2.4347826086956523,-6.08695652173913,4.771739130434782,-8.026127579942655,64.39523868504033,56.369111105097666,493.7304626381949,575.4165012140872
1.710402113256184E12,2.3478260869565215,-6.054347826086956,4.891304347826087,-8.017184497974455,64.40497510492506,56.387790606950595,493.7161104340685,575.4246509581388
1.710402113275716E12,2.3260869565217392,-6.0978260869565215,4.793478260869565,-8.003120780363176,64.4048308616675,56.40171008130432,493.7122879877434,575.4322237291603
1.7104021132952478E12,2.282608695652174,-6.0978260869565215,4.782608695652174,-7.97153150695938,64.4084369431063,56.43690543614691,493.6983685133897,575.4376328513185
1.7104021133147795E12,2.3152173913043477,-6.130434782608695,4.891304347826087,-7.965040560369559,64.42754917473187,56.462508614362314,493.6941133372919,575.4639572458217
1.7104021133343115E12,2.3369565217391304,-6.163043478260869,4.826086956521739,-7.9288355027241115,64.42971282359515,56.50087732087104,493.68365570111945,575.4938156001349
1.7104021133538433E12,2.3478260869565215,-6.141304347826087,4.815217391304348,-7.862267239364057,64.45423417737892,56.59196693801486,493.6821411469151,575.5489165245195
1.710402113373375E12,2.3260869565217392,-6.0978260869565215,4.815217391304348,-7.82469187077187,64.48430889657843,56.659617025806554,493.6890648232776,575.5693990670919
1.710402113392907E12,2.3369565217391304,-6.08695652173913,4.793478260869565,-7.811277247819573,64.53284675274453,56.72156950492496,493.7050037032371,575.5642784314488
1.7104021134124387E12,2.3478260869565215,-6.108695652173913,4.793478260869565,-7.834933142058032,64.51871091350448,56.683777771446444,493.6905072558531,575.5093217503216
1.7104021134319705E12,2.3260869565217392,-6.076086956521739,4.83695652173913,-7.951914423932365,64.45596509646954,56.504050672537176,493.7133698121751,575.429122499123
1.7104021134515024E12,2.380434782608696,-6.108695652173913,4.826086956521739,-7.996197104000701,64.39069502242745,56.394497918426744,493.6571870633587,575.3989756582947
1.7104021134710342E12,2.3369565217391304,-6.108695652173913,4.8478260869565215,-8.013722659793217,64.35686997853159,56.34314731873838,493.6368487640439,575.3875083193193
1.710402113490566E12,2.3478260869565215,-6.130434782608695,4.826086956521739,-8.032979134676355,64.3476384100483,56.314659275371945,493.63619966938495,575.3836858729942
1.710402113510098E12,2.380434782608696,-6.1521739130434785,4.684782608695652,-8.04026341918271,64.35023478868423,56.30997136950152,493.64103181851294,575.3900325763265
1.7104021135296296E12,2.293478260869565,-6.119565217391304,4.978260869565217,-8.041561608500674,64.36473123606817,56.32316962756749,493.6232177762053,575.4013556720442
1.7104021135491614E12,2.4782608695652173,-6.0978260869565215,4.673913043478261,-8.030959729070632,64.37497250735433,56.34401277828369,493.64672942718624,575.3965956445451
1.7104021135686934E12,2.3043478260869565,-6.108695652173913,4.945652173913043,-8.034637932138198,64.38059799439884,56.34596006226064,493.6442051701791,575.4014277936731
1.710402113588225E12,2.3260869565217392,-6.0978260869565215,4.934782608695652,-8.038748864978418,64.37973253485353,56.34098366987511,493.65798040127527,575.3989756582947
1.7104021136077568E12,2.391304347826087,-6.163043478260869,4.793478260869565,-8.043148284333741,64.37973253485353,56.336584250519785,493.6279056820757,575.3943598740531
1.7104021136272888E12,2.380434782608696,-6.163043478260869,4.880434782608695,-8.036585216115144,64.36631791190123,56.329732695786085,493.63677664241516,575.4035914425364
1.7104021136468206E12,2.3369565217391304,-6.1521739130434785,4.782608695652174,-8.050432568840096,64.37050096637023,56.32006839753013,493.6515615763142,575.3952974552271
1.7104021136663525E12,2.3369565217391304,-6.119565217391304,4.793478260869565,-8.051802879786836,64.35968272205386,56.30787984226702,493.63634391264253,575.4085678349219
1.7104021136858843E12,2.282608695652174,-6.130434782608695,4.83695652173913,-8.053894407021334,64.3649476009545,56.311053193933155,493.63749785870294,575.4043126588241
1.710402113705416E12,2.3478260869565215,-6.1521739130434785,4.793478260869565,-8.058293826376657,64.36090878974305,56.30261496336639,493.6437724404064,575.416573335716
1.710402113724948E12,2.358695652173913,-6.108695652173913,4.739130434782608,-8.069977530238335,64.36826519587818,56.29828766563984,493.6631010369183,575.4198909306397
1.7104021137444797E12,2.282608695652174,-6.108695652173913,4.826086956521739,-8.071564206071402,64.36725549307532,56.29569128700391,493.6944739454358,575.4182321331779
1.7104021137640115E12,2.3152173913043477,-6.130434782608695,4.804347826086956,-8.062332637588101,64.36018757345529,56.297854935867186,493.6851702553237,575.4018605234457
1.7104021137835435E12,2.3369565217391304,-6.141304347826087,4.717391304347826,-8.081300625956134,64.35268692406261,56.27138629810647,493.669952591652,575.4113805784441
1.7104021138030752E12,2.3043478260869565,-6.141304347826087,4.815217391304348,-8.076324233570604,64.34619597747279,56.26987174390218,493.66771682115996,575.405610848142
1.710402113822607E12,2.3152173913043477,-6.130434782608695,4.75,-8.080579409668376,64.34280626092033,56.262226851251945,493.65906222570686,575.4112363351866
1.710402113842139E12,2.3260869565217392,-6.130434782608695,4.75,-8.07863212569143,64.33819047667868,56.25955835098724,493.6742077677498,575.4131114975347
1.7104021138616707E12,2.2717391304347827,-6.130434782608695,4.804347826086956,-8.087214599515749,64.33480076012621,56.24758616061046,493.6676446995312,575.4141933219664
1.7104021138812024E12,2.293478260869565,-6.130434782608695,4.75,-8.096013438226395,64.33458439523989,56.238570957013486,493.68646844464166,575.4234248904497
1.7104021139007344E12,2.3260869565217392,-6.1521739130434785,4.782608695652174,-8.095147978681085,64.32737223236231,56.23222425368122,493.707600081873,575.4169339438598
1.710402113920266E12,2.3043478260869565,-6.108695652173913,4.717391304347826,-8.097167384286807,64.32629040793067,56.22912302364386,493.7148122447506,575.4167897006023
1.7104021139397979E12,2.2717391304347827,-6.130434782608695,4.728260869565217,-8.082093963872667,64.32405463743862,56.24196067356595,493.6897860395654,575.4127508893908
1.7104021139593298E12,2.2717391304347827,-6.119565217391304,4.728260869565217,-8.077550301259793,64.34994630216913,56.27239600090933,493.69274302634517,575.400778699014
1.7104021139788616E12,2.260869565217391,-6.141304347826087,4.739130434782608,-8.055264717968074,64.34006563902685,56.28480092105877,493.68733390418697,575.4106593621564
1.7104021139983933E12,2.293478260869565,-6.141304347826087,4.804347826086956,-8.060385353611155,64.29787448619301,56.23748913258185,493.69570001312496,575.4250836879115
1.7104021140179253E12,2.293478260869565,-6.130434782608695,4.771739130434782,-8.09832133034722,64.29145566123196,56.19313433088474,493.6871175393007,575.4050338751118
1.710402114037457E12,2.282608695652174,-6.119565217391304,4.728260869565217,-8.104812276937041,64.28792170142195,56.183109424484904,493.6962048645264,575.4046011453391
1.710402114056989E12,2.282608695652174,-6.08695652173913,4.728260869565217,-8.096518289627825,64.27515617312864,56.178637883500805,493.7033449057752,575.3978217122343
1.7104021140765208E12,2.282608695652174,-6.130434782608695,4.728260869565217,-8.098681938491099,64.26996341585678,56.171281477365675,493.6729095784318,575.4172945520037
1.7104021140960525E12,2.25,-6.1521739130434785,4.782608695652174,-8.037739162175557,64.22539224927334,56.18765308709778,493.6778859708174,575.4944646947938
1.7104021141155845E12,2.282608695652174,-6.141304347826087,4.771739130434782,-7.9026553514785,65.15850188237451,57.255846530896015,493.6843047957784,575.0918096413386
1.7104021141351162E12,2.293478260869565,-6.130434782608695,4.771739130434782,-8.179458162719985,64.78931126467124,56.60985310195126,493.6781744573325,574.9485760865898
1.710402114154648E12,2.3152173913043477,-6.065217391304348,4.641304347826087,-8.147724646058638,64.30256239206344,56.154837746004794,493.66389437483485,575.3764015884879
1.71040211417418E12,2.2065217391304346,-6.130434782608695,4.815217391304348,-8.062404759216877,64.30660120327488,56.244196444058,493.67226048377285,575.4351807159401
1.7104021141937117E12,2.3260869565217392,-6.08695652173913,4.739130434782608,-8.055048353081746,64.2856859309299,56.23063757784815,493.650984603284,575.4504705012406
1.7104021142132434E12,2.3260869565217392,-6.076086956521739,4.717391304347826,-8.045095568310687,64.28590229581623,56.240806727505536,493.6610095096838,575.4738379089639
1.7104021142327754E12,2.25,-6.054347826086956,4.83695652173913,-8.040119175925158,64.28337803880908,56.24325886288391,493.6667071183571,575.4748476117668
1.7104021142523071E12,2.260869565217391,-6.1521739130434785,4.684782608695652,-8.022016647102433,64.2853974444148,56.26338079731236,493.68899270164883,575.489271937522
1.7104021142718389E12,2.3043478260869565,-6.173913043478261,4.760869565217392,-8.004851699453795,64.28496471464214,56.28011301518834,493.6778859708174,575.4991526006643
1.7104021142913708E12,2.293478260869565,-6.163043478260869,4.771739130434782,-7.963742371051595,64.29131141797441,56.32756904692281,493.6783908222188,575.5252606302811
1.7104021143109026E12,2.282608695652174,-6.173913043478261,4.739130434782608,-7.922633042649394,64.3005429864577,56.37790994380831,493.6933199993754,575.5582923362604
1.7104021143304343E12,2.3152173913043477,-6.119565217391304,4.706521739130435,-7.853901130426065,64.33761350364847,56.4837123732224,493.68920906653517,575.6153405446221
1.7104021143499663E12,2.293478260869565,-6.065217391304348,4.673913043478261,-7.8174075862655155,64.35095600497199,56.533548418706474,493.65538402263934,575.6234902886737
1.710402114369498E12,2.2717391304347827,-6.054347826086956,4.684782608695652,-7.801396584677289,64.37425129106657,56.57285470638928,493.6737750379771,575.6051713949647
1.7104021143890298E12,2.282608695652174,-6.0978260869565215,4.663043478260869,-7.894649850684387,64.34893659936625,56.454286748681874,493.65567250915444,575.5222315218725
1.7104021144085618E12,2.282608695652174,-6.108695652173913,4.706521739130435,-7.963742371051595,64.28647926884642,56.32273689779483,493.6509124816552,575.4711694086992
1.7104021144280935E12,2.293478260869565,-6.108695652173913,4.695652173913043,-8.025911215056327,64.22301223552374,56.19710102046741,493.62401111412186,575.4405898380983
1.7104021144476255E12,2.282608695652174,-6.119565217391304,4.760869565217392,-8.038604621720866,64.2061357743902,56.16753115266933,493.6819969036576,575.4356855673416
1.7104021144671572E12,2.25,-6.1521739130434785,4.673913043478261,-8.040047054296382,64.19135084049117,56.15130378619478,493.68149205225615,575.4408062029846
1.710402114486689E12,2.3152173913043477,-6.184782608695652,4.826086956521739,-8.059519894065845,64.20036604408814,56.14084615002229,493.6845932822935,575.4444122844234
1.710402114506221E12,2.2717391304347827,-6.054347826086956,4.728260869565217,-8.054110771907661,64.19510116518751,56.14099039327984,493.6912284721409,575.4526341501039
1.7104021145257527E12,2.260869565217391,-6.054347826086956,4.489130434782608,-8.05086529861275,64.20887639628369,56.15801109767093,493.6891369449064,575.4576105424894
1.7104021145452844E12,2.2282608695652173,-6.054347826086956,4.923913043478261,-8.055481082854401,64.20685699067796,56.15137590782356,493.698584878276,575.4674190840029
1.7104021145648164E12,2.293478260869565,-6.108695652173913,4.793478260869565,-8.05858231289176,64.18623020484809,56.12764789195632,493.7119995012283,575.4854494911968
1.7104021145843481E12,2.3152173913043477,-6.184782608695652,4.75,-8.044734960166808,64.17519559564539,56.13046063547858,493.6509124816552,575.4913634647564
1.71040211460388E12,2.2717391304347827,-6.184782608695652,4.8478260869565215,-8.045600419712118,64.17216648723681,56.126566067524685,493.6605767799112,575.4962677355132
1.7104021146234119E12,2.3260869565217392,-6.141304347826087,4.804347826086956,-8.043148284333741,64.16971435185843,56.126566067524685,493.6679331860463,575.478958544607
1.7104021146429436E12,2.293478260869565,-6.141304347826087,4.83695652173913,-8.041994338273328,64.18861021859769,56.146615880324354,493.66634651021326,575.4682845435482
1.7104021146624753E12,2.2717391304347827,-6.0978260869565215,4.815217391304348,-8.046321635999876,64.1924326649228,56.146111028922924,493.67882355199146,575.4611445022994
1.7104021146820073E12,2.293478260869565,-6.08695652173913,4.75,-8.046393757628651,64.16964223022966,56.123248472601,493.68235751180146,575.4648948269958
1.710402114701539E12,2.3043478260869565,-6.076086956521739,4.771739130434782,-8.040551905697813,64.15593912076226,56.11538721506444,493.67615505172677,575.4679239354043
1.7104021147210708E12,2.282608695652174,-6.08695652173913,4.815217391304348,-8.041056757099243,64.1367547675079,56.09569801040865,493.6687986455916,575.4633081511627
1.7104021147406028E12,2.3043478260869565,-6.119565217391304,4.760869565217392,-8.03990281103883,64.1301916992893,56.09028888825046,493.66569741555423,575.4728282061611
1.7104021147601345E12,2.293478260869565,-6.08695652173913,4.83695652173913,-8.036008243084938,64.11987830637436,56.08387006328942,493.6504797518826,575.4726118412748
1.7104021147796663E12,2.293478260869565,-6.08695652173913,4.826086956521739,-8.041128878728019,64.12434984735846,56.083220968630435,493.6605767799112,575.4806173420689
1.7104021147991982E12,2.3260869565217392,-6.0978260869565215,4.793478260869565,-8.04538405482579,64.11728192773843,56.071897872912636,493.6605046582824,575.480256733925
1.71040211481873E12,2.2717391304347827,-6.108695652173913,4.804347826086956,-8.036440972857593,64.11684919796578,56.08040822510818,493.66757257790243,575.4745591252517
1.710402114838262E12,2.282608695652174,-6.1521739130434785,4.804347826086956,-8.049206501150907,64.14252449780996,56.093317996659046,493.63886816964964,575.4724675980173
1.7104021148577937E12,2.293478260869565,-6.130434782608695,4.826086956521739,-8.032618526532476,64.13379778072809,56.10117925419561,493.65978344199465,575.4643178539656
1.7104021148773254E12,2.3478260869565215,-6.130434782608695,4.858695652173913,-8.035503391683507,64.15637185053491,56.1208684588514,493.6875502690733,575.4598463129814
1.7104021148968574E12,2.3369565217391304,-6.119565217391304,4.83695652173913,-8.03615248634249,64.19401934075587,56.15786685441338,493.6813478089986,575.4545814340809
1.7104021149163892E12,2.3043478260869565,-6.119565217391304,4.869565217391305,-8.008890510665239,64.19986119268671,56.190970682021465,493.6897860395654,575.4507589877556
1.710402114935921E12,2.3043478260869565,-6.0978260869565215,4.815217391304348,-8.013722659793217,64.15507366121693,56.14135100142372,493.7044267302069,575.4663372595712
1.710402114955453E12,2.3152173913043477,-6.08695652173913,4.826086956521739,-8.010693551384634,64.1170655628521,56.106372011467464,493.69187756679986,575.4648227053669
1.7104021149749846E12,2.3152173913043477,-6.065217391304348,4.826086956521739,-8.045961027855997,64.11338735978454,56.06742633192854,493.6903630125956,575.4691500030935
1.7104021149945164E12,2.3043478260869565,-6.0978260869565215,4.815217391304348,-8.049999839067441,64.1096370350882,56.05963719602075,493.7050037032371,575.4665536244576
1.7104021150140483E12,2.3260869565217392,-6.0978260869565215,4.804347826086956,-8.05447138005154,64.11879648194272,56.06432510189118,493.68264599831656,575.478958544607
1.71040211503358E12,2.3043478260869565,-6.119565217391304,4.804347826086956,-8.02035784964059,64.10105456126388,56.08069671162328,493.6990176080487,575.5039847497923
1.7104021150531118E12,2.3152173913043477,-6.119565217391304,4.83695652173913,-7.896741377918885,64.73723944869512,56.840498070776235,493.7094031225924,575.3071648248631
1.7104021150726438E12,2.3478260869565215,-6.141304347826087,4.83695652173913,-8.09558070845374,65.17934503309073,57.08376432463698,493.7192116641059,574.8072898158181
1.7104021150921755E12,2.3043478260869565,-6.076086956521739,4.771739130434782,-8.227563289113437,64.26599672627411,56.03843343716067,493.69584425638254,575.2036702875698
1.7104021151117073E12,2.358695652173913,-6.130434782608695,4.8478260869565215,-8.03204155350227,64.20368363901183,56.17164208550955,493.6574755498738,575.4968447085434
1.7104021151312393E12,2.260869565217391,-6.184782608695652,4.83695652173913,-8.026127579942655,64.19596662473282,56.16983904479016,493.6524270358595,575.5103314531245
1.710402115150771E12,2.4130434782608696,-6.0978260869565215,4.804347826086956,-8.015742065398939,64.18832173208258,56.17257966668364,493.6504797518826,575.5171108862294
1.7104021151703027E12,2.3369565217391304,-6.054347826086956,4.858695652173913,-8.01213598396015,64.19445207052851,56.18231608656837,493.650335508625,575.5323285499011
1.7104021151898347E12,2.3369565217391304,-6.108695652173913,4.706521739130435,-7.986532805744744,64.19257690818034,56.206044102435605,493.6607210231687,575.5476183352016
1.7104021152093665E12,2.3152173913043477,-6.163043478260869,4.782608695652174,-7.968286033664469,64.21003034234408,56.24174430867962,493.66180284760037,575.5601674986086
1.7104021152288984E12,2.3369565217391304,-6.173913043478261,4.891304347826087,-7.9493901669252125,64.21385278866921,56.264462621743995,493.663533766691,575.5764669867119
1.7104021152484302E12,2.3478260869565215,-6.184782608695652,4.83695652173913,-7.917800893521416,64.23527291241561,56.3174720188942,493.7030564192601,575.6210381532953
1.710402115267962E12,2.369565217391304,-6.130434782608695,4.782608695652174,-7.8725806322789955,64.24789419745137,56.375313565172384,493.66901501047795,575.6527716699567
1.710402115287494E12,2.3369565217391304,-6.065217391304348,4.760869565217392,-7.82144639747696,64.29585508058729,56.474408683110326,493.66692348324347,575.7021749856681
1.7104021153070256E12,2.3152173913043477,-6.065217391304348,4.728260869565217,-7.797934746496051,64.31215456869062,56.51421982219456,493.6625240638881,575.6895537006324
1.7104021153265574E12,2.3260869565217392,-6.108695652173913,4.760869565217392,-7.8523865762217735,64.31265942009203,56.460272843870264,493.6521385493444,575.6102199089789
1.7104021153460894E12,2.3369565217391304,-6.0978260869565215,4.804347826086956,-7.930710665072283,64.26513126672879,56.33442060165651,493.6547349279803,575.5557680792532
1.710402115365621E12,2.369565217391304,-6.0978260869565215,4.771739130434782,-8.002111077560315,64.17800833916763,56.175897261607325,493.6346129935519,575.5113411559273
1.7104021153851528E12,2.3369565217391304,-6.119565217391304,4.804347826086956,-8.022160890359984,64.16005005360248,56.137889163242484,493.62184746525855,575.5114132775561
1.7104021154046848E12,2.3369565217391304,-6.141304347826087,4.815217391304348,-8.032185796759821,64.15052999860407,56.118344201844245,493.6334590474915,575.4990083574068
1.7104021154242166E12,2.380434782608696,-6.184782608695652,4.6521739130434785,-8.03853250009209,64.14670755227895,56.10817505218686,493.63533420983964,575.5136490480481
1.7104021154437483E12,2.282608695652174,-6.119565217391304,4.978260869565217,-8.03889310823597,64.14490451155956,56.106011403323585,493.639084534536,575.5086726556626
1.7104021154632803E12,2.4239130434782608,-6.0978260869565215,4.663043478260869,-8.040191297553934,64.1644494729578,56.12425817540386,493.6513452114279,575.5196351432365
1.710402115482812E12,2.282608695652174,-6.08695652173913,4.804347826086956,-8.03391671585044,64.16372825667004,56.129811540819595,493.66216345574423,575.524323049107
1.7104021155023438E12,2.2717391304347827,-6.108695652173913,4.891304347826087,-8.034277323994319,64.15291001235367,56.11863268835935,493.6311511553707,575.5220151569862
1.7104021155218757E12,2.402173913043478,-6.1521739130434785,4.771739130434782,-8.040696148955364,64.14677967390773,56.10608352495236,493.63980575082377,575.5161011834266
1.7104021155414075E12,2.358695652173913,-6.119565217391304,4.880434782608695,-8.03853250009209,64.14086570034812,56.10233320025602,493.63829119661943,575.5049223309663
1.7104021155609392E12,2.358695652173913,-6.141304347826087,4.804347826086956,-8.039542202894951,64.1349517267885,56.095409523893544,493.62934811465124,575.5131441966467
1.7104021155804712E12,2.3369565217391304,-6.1521739130434785,4.83695652173913,-8.02619970157143,64.12550379341887,56.099304091847436,493.63973362919495,575.5129999533892
1.710402115600003E12,2.3260869565217392,-6.0978260869565215,4.75,-8.034926418653301,64.12492682038867,56.09000040173536,493.6723326054016,575.5252606302811
1.710402115619535E12,2.3152173913043477,-6.130434782608695,4.804347826086956,-8.03802764869066,64.11576737353414,56.077739724843475,493.6716113891139,575.521726670471
1.7104021156390667E12,2.3369565217391304,-6.119565217391304,4.728260869565217,-8.032762769790027,64.10321821012715,56.07045544033712,493.6572591849875,575.534275833878
1.7104021156585984E12,2.3043478260869565,-6.0978260869565215,4.782608695652174,-8.042427068045983,64.11490191398883,56.07247484594284,493.66418286134996,575.5319679417572
1.7104021156781304E12,2.3478260869565215,-6.141304347826087,4.739130434782608,-8.041850095015777,64.09340966861365,56.051559573597864,493.6540137116926,575.5373770639154
1.710402115697662E12,2.3369565217391304,-6.141304347826087,4.804347826086956,-8.036368851228817,64.09449149304528,56.05812264181646,493.6574755498738,575.5403340506953
1.7104021157171938E12,2.3152173913043477,-6.1521739130434785,4.782608695652174,-8.03168094535839,64.07920170774482,56.04752076238642,493.6447821432093,575.5378097936881
1.7104021157367258E12,2.3260869565217392,-6.173913043478261,4.717391304347826,-8.044446473651705,64.07934595100237,56.034899477350656,493.65538402263934,575.5422813346722
1.7104021157562576E12,2.358695652173913,-6.0978260869565215,4.782608695652174,-8.040407662440261,64.08331264058504,56.04290497814477,493.6818526604,575.5310303605831
1.7104021157757893E12,2.3152173913043477,-6.130434782608695,4.869565217391305,-8.051009541870302,64.09016419531874,56.03915465344843,493.6909399856258,575.5332661310752
1.7104021157953213E12,2.3260869565217392,-6.119565217391304,4.8478260869565215,-8.047259217173961,64.10047758823367,56.05321837105971,493.67435201100733,575.5156684536539
1.710402115814853E12,2.3260869565217392,-6.08695652173913,4.815217391304348,-8.046898609030082,64.09824181774162,56.051343208711536,493.7055806762673,575.5205727244106
1.7104021158343848E12,2.3260869565217392,-6.065217391304348,4.815217391304348,-8.045600419712118,64.09514058770426,56.04954016799214,493.6612979961989,575.5362952394838
1.7104021158539167E12,2.3260869565217392,-6.108695652173913,4.771739130434782,-8.049927717438665,64.07811988331318,56.02819216587451,493.7075279602442,575.532689158045
1.7104021158734485E12,2.3152173913043477,-6.141304347826087,4.782608695652174,-8.035647634941059,64.06715739573926,56.031509760798194,493.6966375942991,575.5341315906205
1.7104021158929802E12,2.3152173913043477,-6.141304347826087,4.793478260869565,-8.051586514900508,64.05922401657392,56.00763750167341,493.67709263290084,575.5433631591038
1.7104021159125122E12,2.293478260869565,-6.1521739130434785,4.815217391304348,-8.03990281103883,64.05893553005882,56.01903271901998,493.6774532410447,575.5575711199726
1.710402115932044E12,2.282608695652174,-6.130434782608695,4.771739130434782,-8.042715554561086,64.05677188119554,56.01405632663445,493.6753617138102,575.5580038497453
1.7104021159515757E12,2.3043478260869565,-6.130434782608695,4.771739130434782,-8.046321635999876,64.10365093989981,56.05732930389993,493.6906514991107,575.5544698899353
1.7104021159711077E12,2.3043478260869565,-6.130434782608695,4.771739130434782,-8.016391160057921,64.09283269558344,56.07644153552551,493.6919496884286,575.5463201458837
1.7104021159906394E12,2.293478260869565,-6.119565217391304,4.804347826086956,-8.012785078619132,64.11713768448087,56.10435260586174,493.70291217600254,575.5353576583097
1.7104021160101714E12,2.2717391304347827,-6.108695652173913,4.739130434782608,-8.01451599770975,64.05814219214227,56.04362619443253,493.69786366198826,575.5528110924735
1.7104021160297031E12,2.293478260869565,-6.0978260869565215,4.739130434782608,-8.05122590675663,64.05172336718124,56.000497460424604,493.6975030538444,575.5436516456189
1.7104021160492349E12,2.282608695652174,-6.108695652173913,4.739130434782608,-8.054831988195419,64.03823662260017,55.98340463440474,493.69570001312496,575.5563450522834
1.7104021160687668E12,2.3043478260869565,-6.119565217391304,4.760869565217392,-8.052524096074594,64.02857232434421,55.97604822826961,493.66093738805506,575.5563450522834
1.7104021160882986E12,2.3260869565217392,-6.1521739130434785,4.771739130434782,-8.030382756040426,64.00794553851433,55.9775627824739,493.66829379419016,575.5743033378486
1.7104021161078303E12,2.293478260869565,-6.108695652173913,4.771739130434782,-7.908785689924442,64.04241967706915,56.13363398714471,493.6912284721409,575.7261193664217
1.7104021161273623E12,2.3043478260869565,-6.119565217391304,4.760869565217392,-7.873301848566753,64.92172657510359,57.048424726536844,493.70197459482847,575.2403801966167
1.710402116146894E12,2.3152173913043477,-6.108695652173913,4.826086956521739,-8.231385735438554,64.22957530374234,55.99818956830378,493.6801217413094,575.2594924282423
1.7104021161664258E12,2.369565217391304,-6.043478260869565,4.673913043478261,-8.097095262658032,64.07552350467725,55.97842824201921,493.7108455551679,575.519490899979
1.7104021161859578E12,2.108695652173913,-6.1521739130434785,4.945652173913043,-8.024540904109587,64.0908854116065,56.0663445074969,493.7066625006989,575.6110853685243
1.7104021162054895E12,2.369565217391304,-6.065217391304348,4.695652173913043,-8.013794781421993,64.08374537035769,56.06995058893569,493.66771682115996,575.626303032196
1.7104021162250212E12,2.3152173913043477,-6.076086956521739,4.771739130434782,-7.986027954343314,64.07364834232908,56.08762038798576,493.6807708359684,575.6361115737095
1.7104021162445532E12,2.2717391304347827,-6.076086956521739,4.793478260869565,-7.981267926844112,64.06766224714067,56.08639432029657,493.68091507922594,575.6411600877237
1.710402116264085E12,2.293478260869565,-6.173913043478261,4.684782608695652,-7.958765978666065,64.06960953111764,56.11084355245156,493.67464049752243,575.6586856435163
1.7104021162836167E12,2.293478260869565,-6.141304347826087,4.804347826086956,-7.939870111926808,64.07797564005563,56.13810552812881,493.6896417963078,575.6649602252198
1.7104021163031487E12,2.3043478260869565,-6.173913043478261,4.793478260869565,-7.91275237950711,64.08922661414464,56.17647423463753,493.6990176080487,575.6961888904797
1.7104021163226804E12,2.3260869565217392,-6.130434782608695,4.728260869565217,-7.842650156337042,64.10105456126387,56.25840440492683,493.71005221725136,575.7305909074057
1.7104021163422122E12,2.282608695652174,-6.065217391304348,4.717391304347826,-7.808536625926093,64.13675476750788,56.32821814158179,493.7161104340685,575.7753063172468
1.7104021163617441E12,2.293478260869565,-6.021739130434782,4.717391304347826,-7.7529308501399585,64.15089060674794,56.39795975660798,493.67831870059,575.8047319417873
1.710402116381276E12,2.282608695652174,-6.08695652173913,4.706521739130435,-7.771970960136767,64.16257431060961,56.39060335047285,493.7000273108515,575.7634062484988
1.7104021164008079E12,2.293478260869565,-6.108695652173913,4.728260869565217,-7.879504308641471,64.11706556285209,56.237561254210625,493.6846654039223,575.6812597133231
1.7104021164203396E12,2.3152173913043477,-6.119565217391304,4.782608695652174,-7.940447084957015,64.05958462471779,56.11913753976078,493.6791841601353,575.6351739925354
1.7104021164398713E12,2.293478260869565,-6.1521739130434785,4.782608695652174,-7.9778782102916495,64.02424502661765,56.04636681632601,493.66627438858444,575.6050992733359
1.7104021164594033E12,2.3152173913043477,-6.130434782608695,4.793478260869565,-8.000235915212144,64.01147949832435,56.0112435831122,493.64687367044377,575.6218314912119
1.710402116478935E12,2.3152173913043477,-6.163043478260869,4.641304347826087,-8.008169294377481,64.0068637140827,55.99869441970521,493.63944514267985,575.6246442347341
1.7104021164984668E12,2.260869565217391,-6.119565217391304,4.956521739130435,-8.02136755244345,64.02294683729968,56.00157928485624,493.63800271010433,575.6304139650362
1.7104021165179988E12,2.380434782608696,-6.108695652173913,4.684782608695652,-8.009611726952997,64.02366805358744,56.01405632663445,493.65552826589686,575.631135181324
1.7104021165375305E12,2.293478260869565,-6.108695652173913,4.673913043478261,-8.009539605324221,64.02453351313275,56.01499390780854,493.65906222570686,575.633370951816
1.7104021165570623E12,2.282608695652174,-6.065217391304348,4.9021739130434785,-8.009467483695445,64.02460563476154,56.01513815106609,493.6396615075662,575.6364000602246
1.7104021165765942E12,2.3369565217391304,-6.1521739130434785,4.739130434782608,-8.014227511194647,64.02359593195868,56.00936842076403,493.64694579207253,575.6330824653008
1.710402116596126E12,2.3369565217391304,-6.130434782608695,4.815217391304348,-7.996197104000701,63.99200665855488,55.99580955455418,493.6522106709732,575.6260866673097
1.7104021166156577E12,2.3152173913043477,-6.119565217391304,4.815217391304348,-8.008674145778912,64.0062146194237,55.9975404736448,493.63922877779356,575.6264472754535
1.7104021166351897E12,2.3260869565217392,-6.141304347826087,4.793478260869565,-8.010116578354427,64.00736856548411,55.997251987129694,493.638435439877,575.628538802688
1.7104021166547214E12,2.2391304347826084,-6.108695652173913,4.858695652173913,-8.018266322406092,64.00873887643087,55.99047255402477,493.6314396418858,575.622769072386
1.7104021166742532E12,2.2717391304347827,-6.108695652173913,4.771739130434782,-8.007087469945844,64.00484430847698,55.997756838531124,493.6351899665821,575.6300533568923
1.7104021166937852E12,2.293478260869565,-6.076086956521739,4.739130434782608,-8.015597822141387,64.011263133438,55.99566531129663,493.6499027788524,575.6175041934853
1.710402116713317E12,2.2717391304347827,-6.076086956521739,4.760869565217392,-8.007808686233602,63.99647819953898,55.988669513305375,493.6423300078309,575.6126720443574
1.7104021167328486E12,2.3043478260869565,-6.108695652173913,4.728260869565217,-8.001606226158884,63.98890542851752,55.987299202358635,493.6421136429446,575.622769072386
1.7104021167523806E12,2.260869565217391,-6.0978260869565215,4.717391304347826,-7.981700656616766,63.96784591291499,55.98614525629822,493.63829119661943,575.6213266398105
1.7104021167719124E12,2.217391304347826,-6.0978260869565215,4.782608695652174,-7.992302536046808,63.95969616886332,55.96739363281651,493.6268959792729,575.6074071654567
1.7104021167914443E12,2.2065217391304346,-6.065217391304348,4.760869565217392,-7.988768576236794,63.96135496632517,55.972586390088374,493.6286268983635,575.602142286556
1.710402116810976E12,2.260869565217391,-6.076086956521739,4.760869565217392,-7.985450981313107,63.97592353533788,55.99047255402477,493.65228279260197,575.6052435165934
1.7104021168305078E12,2.260869565217391,-6.0978260869565215,4.804347826086956,-7.987542508547605,63.971163507838675,55.98362099929107,493.65552826589686,575.5951464885649
1.7104021168500398E12,2.2391304347826084,-6.108695652173913,4.8478260869565215,-7.9953316444553915,63.99005937457793,55.99472773012254,493.6578361580177,575.5889440284901
1.7104021168695715E12,2.282608695652174,-6.076086956521739,4.891304347826087,-7.987686751805157,63.97909688700401,55.991410135198855,493.6597113203659,575.5600953769798
1.7104021168891033E12,2.293478260869565,-6.108695652173913,4.880434782608695,-7.990427373698637,63.98703026616935,55.99660289247071,493.6416809131719,575.5550468629655
1.7104021169086353E12,2.3260869565217392,-6.076086956521739,4.9021739130434785,-7.977445480518995,63.98371267124566,56.00626719072667,493.6544464414652,575.5550468629655
1.710402116928167E12,2.3260869565217392,-6.08695652173913,4.913043478260869,-7.973118182792447,63.97671687325441,56.00359869046196,493.6557446307832,575.5463201458837
1.7104021169476987E12,2.3260869565217392,-6.0978260869565215,4.869565217391305,-7.954943532340948,64.01530194464945,56.06035841230851,493.65567250915444,575.5572105118288
1.7104021169672307E12,2.3478260869565215,-6.108695652173913,4.880434782608695,-7.952707761848899,64.02063894517886,56.06793118332997,493.64103181851294,575.5791354869766
1.7104021169867625E12,2.3478260869565215,-6.130434782608695,4.891304347826087,-7.930205813670852,64.0021036865835,56.071897872912636,493.6340360205217,575.6013489486395
1.7104021170062942E12,2.3152173913043477,-6.119565217391304,4.880434782608695,-7.94051920658579,63.98190963052627,56.04139042394048,493.6709622944549,575.6109411252668
1.7104021170258262E12,2.3478260869565215,-6.108695652173913,4.858695652173913,-7.960424776127908,63.968927737346625,56.00850296121872,493.7057249195248,575.6071186789416
1.710402117045358E12,2.3369565217391304,-6.108695652173913,4.782608695652174,-7.984874008282901,63.98609268499526,56.00121867671236,493.7105570686528,575.6160617609098
1.7104021170648896E12,2.2717391304347827,-6.0978260869565215,4.8478260869565215,-7.992735265819463,63.982125995412595,55.98939072959313,493.6969260808142,575.613753868789
1.7104021170844216E12,2.3260869565217392,-6.141304347826087,4.8478260869565215,-7.975281831655721,63.97642838673931,56.00114655508359,493.6938248507768,575.635606722308
1.7104021171039534E12,2.3369565217391304,-6.119565217391304,4.83695652173913,-7.876835808376767,63.97671687325441,56.09988106487764,493.6882714853611,575.7677335462253
1.710402117123485E12,2.3369565217391304,-6.0978260869565215,4.826086956521739,-7.918017258407743,65.16549768036576,57.247480421958024,493.68149205225615,575.0012248755962
1.710402117143017E12,2.391304347826087,-6.08695652173913,4.880434782608695,-8.168567796774841,64.25748637407857,56.08891857730372,493.7007485271393,575.2291292225277
1.7104021171625488E12,2.510869565217391,-6.032608695652174,4.717391304347826,-8.071564206071402,64.04595363687918,55.97438943080777,493.70204671645723,575.5497819840649
1.7104021171820808E12,2.1956521739130435,-6.173913043478261,4.978260869565217,-7.997278928432338,64.05994523286168,56.062666304429335,493.708249176532,575.6568104811681
1.7104021172016125E12,2.4891304347826084,-6.0978260869565215,4.760869565217392,-7.973478790936326,64.04775667759856,56.07427788666224,493.67723687615836,575.6682778201434
1.7104021172211443E12,2.369565217391304,-6.08695652173913,4.869565217391305,-7.973839399080205,64.06564284153495,56.091803442454754,493.7090425144485,575.6909240115791
1.7104021172406763E12,2.380434782608696,-6.076086956521739,4.782608695652174,-7.978238818435528,64.06903255808743,56.09079373965189,493.71459587986425,575.6992179988883
1.710402117260208E12,2.293478260869565,-6.0978260869565215,4.793478260869565,-7.968286033664469,64.08446658664545,56.11618055298097,493.7120716228571,575.71090170275
1.7104021172797397E12,2.358695652173913,-6.119565217391304,4.858695652173913,-7.943043463592943,64.08525992456197,56.14221646096903,493.69115635051213,575.726335731308
1.7104021172992717E12,2.391304347826087,-6.195652173913043,4.9021739130434785,-7.903376567766258,64.09304906046975,56.1896724927035,493.6906514991107,575.7631177619836
1.7104021173188035E12,2.380434782608696,-6.1521739130434785,4.869565217391305,-7.866594537090604,64.11418069770106,56.24758616061046,493.699883067594,575.7867015345934
1.7104021173383352E12,2.369565217391304,-6.108695652173913,4.815217391304348,-7.837745885580288,64.1459142143624,56.30816832878212,493.699883067594,575.837619404509
1.7104021173578672E12,2.358695652173913,-6.076086956521739,4.793478260869565,-7.784952853316409,64.1816865422352,56.39673368891879,493.7108455551679,575.8641601638985
1.710402117377399E12,2.369565217391304,-6.08695652173913,4.804347826086956,-7.796564435549311,64.20325090923916,56.40668647368985,493.6900745260805,575.8367539449637
1.7104021173969307E12,2.380434782608696,-6.119565217391304,4.8478260869565215,-7.872003659248789,64.1539918367853,56.28198817753651,493.70832129816074,575.7409043003207
1.7104021174164626E12,2.369565217391304,-6.108695652173913,4.869565217391305,-7.94960653181154,64.10192002080919,56.15231348899764,493.707600081873,575.6988573907444
1.7104021174359944E12,2.391304347826087,-6.163043478260869,4.8478260869565215,-8.006510496915638,64.04191482566773,56.03540432875209,493.68365570111945,575.6749130099909
1.7104021174555261E12,2.402173913043478,-6.163043478260869,4.858695652173913,-8.024036052708157,64.0300868785485,56.00605082584034,493.70918675770605,575.6751293748772
1.710402117475058E12,2.380434782608696,-6.119565217391304,4.880434782608695,-8.032907013047579,64.04054451472099,56.00763750167341,493.6888484583913,575.6714511718096
1.7104021174945898E12,2.4239130434782608,-6.163043478260869,4.8478260869565215,-8.02793062066205,64.03910208214548,56.01117146148342,493.68351145786187,575.6830627540426
1.7104021175141216E12,2.3478260869565215,-6.108695652173913,4.858695652173913,-8.042066459902104,64.05460823233227,56.01254177243016,493.69115635051213,575.7006604314638
1.7104021175336536E12,2.358695652173913,-6.08695652173913,4.684782608695652,-8.05122590675663,64.06160403032352,56.01037812356689,493.69526728335234,575.7153011221053
1.7104021175531853E12,2.282608695652174,-6.065217391304348,4.934782608695652,-8.043653135735171,64.04948759668919,56.00583446095401,493.6954836482387,575.7169599195671
1.7104021175727173E12,2.358695652173913,-6.0978260869565215,4.760869565217392,-8.055625326111953,64.06037796263433,56.004752636522376,493.71697589361384,575.7254702717627
1.710402117592249E12,2.380434782608696,-6.130434782608695,4.804347826086956,-8.047691946946616,64.04415059615978,55.99645864921316,493.71856256944693,575.7153732437341
1.7104021176117808E12,2.369565217391304,-6.108695652173913,4.793478260869565,-8.047836190204167,64.04191482566773,55.99407863546356,493.71286496077363,575.7176090142261
1.7104021176313127E12,2.3478260869565215,-6.163043478260869,4.75,-8.053533798877455,64.03535175744913,55.981817958571675,493.7338523547474,575.7104689729773
1.7104021176508445E12,2.3152173913043477,-6.173913043478261,4.793478260869565,-8.060745961755034,64.03145718949523,55.970711227740196,493.74055966622353,575.7176090142261
1.7104021176703762E12,2.3369565217391304,-6.130434782608695,4.8478260869565215,-8.064856894595254,64.03073597320747,55.96587907861222,493.7274335297863,575.7242442040734
1.7104021176899082E12,2.3478260869565215,-6.0978260869565215,4.771739130434782,-8.071059354669972,64.02871656760175,55.95765721293178,493.724332299749,575.7145799058176
1.71040211770944E12,2.358695652173913,-6.0978260869565215,4.771739130434782,-8.073944219821003,64.03116870298012,55.95722448315912,493.7344293277776,575.717681135855
1.7104021177289717E12,2.3152173913043477,-6.108695652173913,4.760869565217392,-8.065578110883012,64.0101091873776,55.944531076494584,493.74654576141194,575.7101083648334
1.7104021177485037E12,2.3478260869565215,-6.130434782608695,4.717391304347826,-8.071996935844057,63.99799275374326,55.92599581789921,493.7257026106957,575.7165993114232
1.7104021177680354E12,2.369565217391304,-6.130434782608695,4.804347826086956,-8.080435166410824,64.0065031059388,55.92606793952798,493.71841832618935,575.7055647022206
1.7104021177875671E12,2.3369565217391304,-6.130434782608695,4.760869565217392,-8.067813881375061,63.99676668605407,55.928952804679014,493.7065903790701,575.6837118487015
1.710402117807099E12,2.3369565217391304,-6.119565217391304,4.782608695652174,-8.079353341979187,64.00275278124246,55.92339943926328,493.70384975717667,575.7037616615012
1.7104021178266309E12,2.3478260869565215,-6.119565217391304,4.782608695652174,-8.086349139970439,64.00924372783228,55.92289458786185,493.73075112471,575.6953955525631
1.7104021178461626E12,2.3152173913043477,-6.130434782608695,4.771739130434782,-8.075098165881416,64.00614249779493,55.93104433191351,493.71784135315914,575.6942416065027
1.7104021178656946E12,2.3152173913043477,-6.108695652173913,4.793478260869565,-8.08187759898634,64.01530194464945,55.93342434566311,493.7123601093722,575.7049877291904
1.7104021178852263E12,2.3260869565217392,-6.119565217391304,4.760869565217392,-8.080651531297152,64.01025343063515,55.929601899337996,493.68178053877125,575.7129211083557
1.710402117904758E12,2.3260869565217392,-6.0978260869565215,4.739130434782608,-8.075747260540398,63.99683880768285,55.92109154714245,493.65581675241197,575.7077283510838
1.71040211792429E12,2.3369565217391304,-6.119565217391304,4.771739130434782,-8.076324233570604,63.99438667230447,55.91806243873387,493.679616889908,575.701237404494
1.7104021179438218E12,2.3152173913043477,-6.141304347826087,4.793478260869565,-8.086565504856766,63.99445879393325,55.90789328907648,493.67312594331815,575.7070792564249
1.7104021179633538E12,2.3260869565217392,-6.130434782608695,4.75,-8.082454572016546,63.9811884142385,55.89873384222196,493.6989454864199,575.7096756350608
1.7104021179828855E12,2.3260869565217392,-6.0978260869565215,4.793478260869565,-8.069112070693025,63.98291933332912,55.9138072626361,493.69187756679986,575.7127047434693
1.7104021180024172E12,2.3043478260869565,-6.119565217391304,4.782608695652174,-8.059880502209724,64.00808978177187,55.94820927956215,493.68149205225615,575.7018143775242
1.7104021180219492E12,2.3043478260869565,-6.119565217391304,4.760869565217392,-8.025983336685103,64.0158067960509,55.98982345936579,493.6811314441123,575.6917173494957
1.710402118041481E12,2.3369565217391304,-6.108695652173913,4.75,-8.027786377404498,64.0187637828307,55.9909774054262,493.68004961968063,575.6868130787389
1.7104021180610127E12,2.3043478260869565,-6.119565217391304,4.75,-8.024108174336932,63.97440898113358,55.95030080679665,493.72296198880224,575.7036174182437
1.7104021180805447E12,2.3260869565217392,-6.130434782608695,4.728260869565217,-8.06730902997363,63.96936046711927,55.902051437145644,493.72050985342383,575.7039059047587
1.7104021181000764E12,2.3152173913043477,-6.141304347826087,4.75,-8.057861096604002,63.95998465537842,55.90212355877442,493.7454639369803,575.7062859185083
1.7104021181196082E12,2.3369565217391304,-6.119565217391304,4.739130434782608,-8.038604621720866,63.960417385151075,55.92181276343021,493.7521712484564,575.7194841765743
1.7104021181391401E12,2.3152173913043477,-6.0978260869565215,4.717391304347826,-8.036801581001471,63.95760464162882,55.92080306062735,493.74344453137456,575.72503754199
1.7104021181586719E12,2.3152173913043477,-6.119565217391304,4.771739130434782,-7.852675062736877,64.23671534499113,56.384040282254254,493.74683424792704,575.8133865372404
1.7104021181782036E12,2.3369565217391304,-6.119565217391304,4.782608695652174,-7.922849407535721,65.03337085644851,57.1105214489128,493.72620746209714,575.2090072880992
1.7104021181977356E12,2.3043478260869565,-6.0978260869565215,4.83695652173913,-8.190925501695336,64.18442716412869,55.99350166243335,493.72224077251445,575.387291954433
1.7104021182172673E12,2.391304347826087,-6.032608695652174,4.630434782608695,-8.009323240437894,64.01530194464945,56.005978704211564,493.74712273444214,575.723090258013
1.710402118236799E12,2.0869565217391304,-6.0978260869565215,4.945652173913043,-7.984297035252695,64.0288608108593,56.04456377560661,493.7424348285717,575.7414091517221
1.710402118256331E12,2.402173913043478,-6.032608695652174,4.630434782608695,-7.946577423402957,63.99813699700082,56.051559573597864,493.73010203005106,575.7657862622483
1.7104021182758628E12,2.3043478260869565,-6.032608695652174,4.760869565217392,-7.942827098706616,64.00289702450002,56.06006992579341,493.70478733835074,575.7784075472841
1.7104021182953945E12,2.3043478260869565,-6.065217391304348,4.771739130434782,-7.925373664542874,64.00167095681083,56.07629729226796,493.6643992262363,575.7915336837214
1.7104021183149265E12,2.3369565217391304,-6.173913043478261,4.673913043478261,-7.898255932123177,63.99142968552467,56.093173753401494,493.66158648271403,575.7944906705011
1.7104021183344583E12,2.3260869565217392,-6.1521739130434785,4.75,-7.880874619588211,64.0202062154062,56.139331595818,493.64305122411866,575.8394224452285
1.7104021183539902E12,2.3260869565217392,-6.130434782608695,4.728260869565217,-7.830894330846588,64.02821171620032,56.197317385353735,493.64059908874026,575.8546401089001
1.710402118373522E12,2.3260869565217392,-6.1521739130434785,4.728260869565217,-7.797357773465845,64.04306877172813,56.24571099826229,493.65538402263934,575.8903403151442
1.7104021183930537E12,2.3369565217391304,-6.108695652173913,4.728260869565217,-7.72754403681088,64.08720720853891,56.35966317172804,493.63562269635474,575.9405369687721
1.7104021184125857E12,2.391304347826087,-6.054347826086956,4.8478260869565215,-7.700354182762407,64.11771465751107,56.41736047474867,493.6381469533619,575.9533024970654
1.7104021184321174E12,2.380434782608696,-6.065217391304348,4.804347826086956,-7.729058591015171,64.12824441531234,56.39918582429717,493.6645434694938,575.8916385044621
1.7104021184516492E12,2.380434782608696,-6.141304347826087,4.804347826086956,-7.804353571457097,64.09968425031713,56.29533067886003,493.66843803744774,575.824781754587
1.7104021184711812E12,2.380434782608696,-6.141304347826087,4.869565217391305,-7.888591633867221,64.02251410752703,56.133922473659815,493.69822427013213,575.7635504917563
1.710402118490713E12,2.391304347826087,-6.119565217391304,4.83695652173913,-7.901212918902984,63.98969876643405,56.08848584753107,493.67456837589367,575.7546795314169
1.7104021185102446E12,2.369565217391304,-6.130434782608695,4.880434782608695,-7.9219839479904115,63.98818421222976,56.06620026423935,493.7042824869493,575.7482607064559
1.7104021185297766E12,2.380434782608696,-6.141304347826087,4.717391304347826,-7.930205813670852,63.999579429576336,56.069373615905484,493.6777417275598,575.7569874235377
1.7104021185493083E12,2.3260869565217392,-6.0978260869565215,5.032608695652174,-7.933884016738418,63.991357563895896,56.05747354715748,493.7259910972108,575.7602328968326
1.71040211856884E12,2.4782608695652173,-6.065217391304348,4.804347826086956,-7.926599732232062,63.996189713023874,56.06958998079181,493.7226013806584,575.7664353569073
1.710402118588372E12,2.358695652173913,-6.0978260869565215,4.684782608695652,-7.91909908283938,63.99279999647141,56.07370091363203,493.7305347598237,575.7746572225877
1.7104021186079038E12,2.358695652173913,-6.065217391304348,4.956521739130435,-7.911093582045267,63.98356842798811,56.07247484594284,493.72079833993894,575.7870621427372
1.7104021186274355E12,2.4456521739130435,-6.130434782608695,4.858695652173913,-7.922849407535721,63.98472237404852,56.0618729665128,493.71913954247714,575.783888791071
1.7104021186469675E12,2.4347826086956523,-6.141304347826087,4.83695652173913,-7.920757880301223,63.97404837298971,56.05329049268848,493.7218801643706,575.7729984251259
1.7104021186664993E12,2.4130434782608696,-6.0978260869565215,4.869565217391305,-7.911526311817922,63.956450695568414,56.04492438375049,493.70774432513053,575.771988722323
1.710402118686031E12,2.4130434782608696,-6.0978260869565215,4.793478260869565,-7.922272434505515,63.95962404723455,56.03735161272903,493.7007485271393,575.7744408577014
1.710402118705563E12,2.380434782608696,-6.0978260869565215,4.869565217391305,-7.933307043708211,63.97368776484583,56.040380721137616,493.67283745680305,575.7784796689128
1.7104021187250947E12,2.391304347826087,-6.0978260869565215,4.815217391304348,-7.940302841699463,63.98154902238239,56.041246180682926,493.6715392674851,575.778119060769
1.7104021187446267E12,2.380434782608696,-6.141304347826087,4.804347826086956,-7.932008854390247,63.97188472412643,56.039875869736186,493.6723326054016,575.7825906017531
1.7104021187641584E12,2.369565217391304,-6.08695652173913,4.8478260869565215,-7.932441584162902,63.96777379128621,56.03533220712331,493.67355867309084,575.7887930618278
1.7104021187836902E12,2.380434782608696,-6.119565217391304,4.826086956521739,-7.9363361521167946,63.97210108901276,56.035764936895966,493.66988047002326,575.792615508153
1.7104021188032222E12,2.358695652173913,-6.08695652173913,4.83695652173913,-7.945928328743975,63.96885561571785,56.022927286973875,493.67110653771243,575.7962937112205
1.710402118822754E12,2.3478260869565215,-6.108695652173913,4.880434782608695,-7.932441584162902,63.95190703295554,56.01946544879264,493.66036041502485,575.7779748175114
1.7104021188422856E12,2.380434782608696,-6.08695652173913,4.83695652173913,-7.939942233555584,63.95176278969799,56.0118205561424,493.6703131997959,575.7986016033414
1.7104021188618176E12,2.380434782608696,-6.0978260869565215,4.826086956521739,-7.922849407535721,63.94945489757716,56.02660549004144,493.6412481833993,575.8018470766362
1.7104021188813494E12,2.358695652173913,-6.065217391304348,4.83695652173913,-7.934316746511072,63.949382775948386,56.015066029437314,493.66569741555423,575.8074725636808
1.710402118900881E12,2.369565217391304,-6.08695652173913,4.804347826086956,-7.933811895109642,63.94916641106206,56.01535451595242,493.6473785218452,575.7900912511458
1.710402118920413E12,2.380434782608696,-6.108695652173913,4.815217391304348,-7.9482362208648,63.964456196362526,56.01621997549773,493.66504832089527,575.7899470078883
1.7104021189399448E12,2.4130434782608696,-6.0978260869565215,4.8478260869565215,-7.935470692571485,63.95911919583312,56.02364850326163,493.65379734680624,575.7822299936092
1.7104021189594766E12,2.402173913043478,-6.119565217391304,4.83695652173913,-7.945351355713768,63.972028967383984,56.026677611670216,493.6623076990018,575.787783359025
1.7104021189790085E12,2.391304347826087,-6.08695652173913,4.826086956521739,-7.936552517003122,63.962581034014356,56.026028517011234,493.71077343353915,575.7851869803891
1.7104021189985403E12,2.391304347826087,-6.119565217391304,4.83695652173913,-7.933307043708211,63.96885561571785,56.03554857200964,493.7060134060399,575.7789845203143
1.710402119018072E12,2.402173913043478,-6.0978260869565215,4.815217391304348,-7.928258529693905,64.0014545919245,56.0731960622306,493.659999806881,575.7834560612985
1.710402119037604E12,2.402173913043478,-6.130434782608695,4.826086956521739,-7.9092905413258725,64.00715220059779,56.09786165927192,493.6694477402506,575.771051141149
1.7104021190571357E12,2.380434782608696,-6.119565217391304,4.83695652173913,-7.891981350419683,63.99900245654613,56.107021106126446,493.6648319560089,575.7917500486076
1.7104021190766675E12,2.380434782608696,-6.119565217391304,4.8478260869565215,-7.902006256819518,63.96676408848335,56.06475783166383,493.69115635051213,575.7998276710305
1.7104021190961995E12,2.391304347826087,-6.108695652173913,4.782608695652174,-7.926167002459407,63.956450695568414,56.030283693109006,493.6729095784318,575.7965100761069
1.7104021191157312E12,2.4130434782608696,-6.08695652173913,4.815217391304348,-7.932657949049229,63.952844614129624,56.020186665080395,493.707600081873,575.7908845890623
1.7104021191352632E12,2.4130434782608696,-6.108695652173913,4.83695652173913,-7.9462889368878535,63.97238957552786,56.02610063864001,493.6893533097927,575.7987458465989
1.710402119154795E12,2.402173913043478,-6.141304347826087,4.826086956521739,-7.940951936358445,63.97051441317969,56.02956247682125,493.7228898671735,575.8048040634161
1.7104021191743267E12,2.402173913043478,-6.130434782608695,4.858695652173913,-7.830966452475364,63.97073077806602,56.139764325590654,493.70204671645723,575.9419072797189
1.7104021191938586E12,2.380434782608696,-6.130434782608695,4.83695652173913,-7.874095186483287,65.14313997544527,57.269044788961985,493.6787514303627,575.1851350289745
1.7104021192133904E12,2.4239130434782608,-6.119565217391304,4.880434782608695,-8.115991129397289,64.24789419745139,56.13190306805409,493.70745583861543,575.4107314837852
1.710402119232922E12,2.467391304347826,-6.065217391304348,4.75,-7.946721666660508,64.05294943487041,56.10622776820991,493.7192116641059,575.8182908079971
1.710402119252454E12,2.1847826086956523,-6.173913043478261,4.967391304347826,-7.934244624882297,64.03996754169077,56.10572291680848,493.7079606900169,575.8433170131823
1.7104021192719858E12,2.5217391304347827,-6.130434782608695,4.75,-7.919315447725707,64.03737116305484,56.11805571532914,493.7156777042959,575.8569480010209
1.7104021192915176E12,2.369565217391304,-6.032608695652174,4.934782608695652,-7.907126892462599,64.03888571725913,56.13175882479654,493.71279283914487,575.8761323542753
1.7104021193110496E12,2.391304347826087,-6.076086956521739,4.728260869565217,-7.903232324508706,64.03701055491096,56.133778230402264,493.7156777042959,575.8881766662809
1.7104021193305813E12,2.369565217391304,-6.173913043478261,4.782608695652174,-7.88260553867883,64.03297174369952,56.150366205020696,493.7013255001695,575.9009421945742
1.710402119350113E12,2.402173913043478,-6.119565217391304,4.83695652173913,-7.874744281142269,64.04811728574244,56.17337300460017,493.7107013119103,575.9036828164676
1.710402119369645E12,2.4130434782608696,-6.173913043478261,4.858695652173913,-7.83926043978458,64.06629193619393,56.22703149640936,493.6793284033929,575.9447200232411
1.7104021193891768E12,2.4239130434782608,-6.173913043478261,4.75,-7.794472908314813,64.08006716729011,56.2855942589753,493.6887763367625,575.9817905404318
1.7104021194087085E12,2.4130434782608696,-6.08695652173913,4.75,-7.7566811748363,64.10552610224796,56.34884492741167,493.706301892555,576.0236210851218
1.7104021194282405E12,2.402173913043478,-6.032608695652174,4.75,-7.712686981283067,64.13257171303889,56.41988473175582,493.6897860395654,576.0575182506465
1.7104021194477722E12,2.391304347826087,-6.108695652173913,4.782608695652174,-7.710667575677345,64.14000024080279,56.42933266512545,493.7117110147132,576.0216738011449
1.710402119467304E12,2.380434782608696,-6.108695652173913,4.771739130434782,-7.807022071721802,64.09997273683223,56.29295066511043,493.6751453489239,575.9380127117649
1.710402119486836E12,2.380434782608696,-6.130434782608695,4.8478260869565215,-7.8794321870126955,64.04934335343162,56.169911166418935,493.68473752555104,575.8749062865861
1.7104021195063677E12,2.4239130434782608,-6.141304347826087,4.760869565217392,-7.933234922079436,63.99200665855488,56.05877173647544,493.67492898403754,575.8438218645838
1.7104021195258997E12,2.391304347826087,-6.130434782608695,4.771739130434782,-7.953933829538087,63.983135698215456,56.02920186867737,493.66302891528954,575.8389897154558
1.7104021195454314E12,2.380434782608696,-6.141304347826087,4.771739130434782,-7.957684154234428,63.97815930582993,56.0204751515955,493.69432970217827,575.8341575663278
1.7104021195649631E12,2.4347826086956523,-6.163043478260869,4.717391304347826,-7.961218114044442,63.97238957552786,56.01117146148342,493.696349107784,575.8506734193174
1.710402119584495E12,2.3369565217391304,-6.043478260869565,4.8478260869565215,-7.971892115103259,63.98991513132038,56.01802301621712,493.6885599718762,575.8524764600369
1.7104021196040269E12,2.3478260869565215,-6.08695652173913,4.619565217391305,-7.9775176021477705,63.99366545601672,56.01614785386895,493.68473752555104,575.86113105549
1.7104021196235586E12,2.282608695652174,-6.0978260869565215,4.858695652173913,-7.980979440329008,63.98327994147301,56.002300501144,493.6953394049811,575.8690644346552
1.7104021196430906E12,2.3369565217391304,-6.141304347826087,4.760869565217392,-7.972613331391017,63.97404837298971,56.00143504159869,493.6871175393007,575.8622128799216
1.7104021196626223E12,2.369565217391304,-6.141304347826087,4.75,-7.9675648173767115,63.96135496632517,55.993790148948456,493.6709622944549,575.8530534330671
1.710402119682154E12,2.3478260869565215,-6.1521739130434785,4.760869565217392,-7.974200007224084,63.95104157341023,55.976841566186145,493.70240732460115,575.8487261353405
1.710402119701686E12,2.3478260869565215,-6.141304347826087,4.717391304347826,-7.972108479989586,63.943468802388765,55.97136032239918,493.71603831243976,575.8455527836744
1.7104021197212178E12,2.3152173913043477,-6.130434782608695,4.804347826086956,-7.982566116162076,63.944478505191626,55.96191238902955,493.68863209350496,575.8498800814009
1.7104021197407495E12,2.3043478260869565,-6.119565217391304,4.739130434782608,-7.986172197600865,63.94116091026794,55.954988712667074,493.7079606900169,575.8555776900743
1.7104021197602815E12,2.3260869565217392,-6.08695652173913,4.739130434782608,-7.976003047943479,63.92745780080054,55.95145475285706,493.6960606212689,575.8480049190528
1.7104021197798132E12,2.3478260869565215,-6.108695652173913,4.728260869565217,-7.980979440329008,63.9239959626193,55.94301652229029,493.6756502003253,575.8558661765893
1.710402119799345E12,2.3152173913043477,-6.119565217391304,4.75,-7.969944831126313,63.8963012571694,55.926356426043085,493.679616889908,575.8441103510988
1.710402119818877E12,2.3152173913043477,-6.119565217391304,4.739130434782608,-7.978310940064304,63.893416392018366,55.91510545195406,493.67709263290084,575.8426679185234
1.7104021198384087E12,2.3478260869565215,-6.119565217391304,4.728260869565217,-7.975858804685927,63.87661205251361,55.90075324782768,493.66274042877444,575.8452642971592
1.7104021198579404E12,2.3369565217391304,-6.0978260869565215,4.760869565217392,-7.977229115632667,63.88000176906607,55.9027726534334,493.63922877779356,575.8522600951505
1.7104021198774724E12,2.3478260869565215,-6.141304347826087,4.739130434782608,-7.986893413888623,63.883319363989756,55.89642595010113,493.6793284033929,575.8694971644279
1.7104021198970042E12,2.3152173913043477,-6.119565217391304,4.739130434782608,-7.980979440329008,63.874592646907885,55.89361320657888,493.6787514303627,575.8671892723071
1.7104021199165361E12,2.3478260869565215,-6.108695652173913,4.717391304347826,-7.982349751275748,63.88158844489914,55.89923869362339,493.71639892058363,575.8651698667014
1.7104021199360679E12,2.3478260869565215,-6.0978260869565215,4.75,-7.985450981313107,63.88223753955812,55.89678655824501,493.7090425144485,575.8548564737864
1.7104021199555996E12,2.3478260869565215,-6.076086956521739,4.728260869565217,-7.987758873433933,63.87069807895399,55.88293920552006,493.70774432513053,575.866900785792
1.7104021199751316E12,2.3260869565217392,-6.119565217391304,4.75,-7.9824939945333,63.864856227023154,55.882362232489854,493.6975030538444,575.8600492310583
1.7104021199946633E12,2.3478260869565215,-6.119565217391304,4.706521739130435,-7.9703054392701915,63.84913371195003,55.87882827267984,493.72296198880224,575.8600492310583
1.710402120014195E12,2.3260869565217392,-6.119565217391304,4.728260869565217,-7.963165398021388,63.84740279285941,55.884237394838024,493.69101210725455,575.8740408270409
1.710402120033727E12,2.358695652173913,-6.141304347826087,4.75,-7.964896317112007,63.889161215920595,55.92426489880859,493.70377763554785,575.865314109959
1.7104021200532588E12,2.369565217391304,-6.130434782608695,4.760869565217392,-7.936047665601691,63.88483391819405,55.948786252592356,493.7013255001695,575.8630062178381
1.7104021200727905E12,2.3369565217391304,-6.108695652173913,4.782608695652174,-7.948668950637455,63.867596848916634,55.91892789827918,493.68473752555104,575.8755553812451
1.7104021200923225E12,2.3260869565217392,-6.119565217391304,4.782608695652174,-7.957900519120756,63.832113007558945,55.87421248843819,493.70384975717667,575.8816857196911
1.7104021201118542E12,2.358695652173913,-6.0978260869565215,4.75,-7.981267926844112,63.834348778050995,55.85308085120688,493.6623076990018,575.8649535018151
1.710402120131386E12,2.358695652173913,-6.0978260869565215,4.771739130434782,-7.981051561957784,63.83377180502079,55.852720243063004,493.67139502422754,575.872382029579
1.710402120150918E12,2.3369565217391304,-6.08695652173913,4.760869565217392,-7.987542508547605,63.836223940399165,55.84868143185156,493.6608652664263,575.859183771513
1.7104021201704497E12,2.3478260869565215,-6.119565217391304,4.771739130434782,-7.966410871316299,63.815164424796635,55.848753553480336,493.66151436108527,575.8735359756394
1.7104021201899814E12,2.3260869565217392,-6.141304347826087,4.815217391304348,-7.800819611647083,64.21154489654838,56.4107252849013,493.6572591849875,575.8806038952594
1.7104021202095134E12,2.380434782608696,-6.130434782608695,4.804347826086956,-7.933523408594539,64.89590703200186,56.96238362340732,493.6435560755201,575.3045684462272
1.7104021202290452E12,2.3369565217391304,-6.119565217391304,4.782608695652174,-8.097744357317014,63.89348851364714,55.79574415633013,493.6351178449533,575.7189072035441
1.710402120248577E12,2.391304347826087,-6.108695652173913,4.684782608695652,-7.977084872375116,63.887286053572424,55.91020118119731,493.6311511553707,575.8741129486696
1.710402120268109E12,2.2065217391304346,-6.206521739130435,4.880434782608695,-7.943620436623149,63.890531526867335,55.946911090244186,493.6260305197276,575.9161598582459
1.7104021202876406E12,2.467391304347826,-6.119565217391304,4.630434782608695,-7.934677354654951,63.884689674936496,55.950012320281544,493.6540137116926,575.9210641290026
1.7104021203071726E12,2.3152173913043477,-6.076086956521739,4.793478260869565,-7.927537313406147,63.89096425663999,55.96342694323384,493.67615505172677,575.9246702104414
1.7104021203267043E12,2.3260869565217392,-6.08695652173913,4.608695652173913,-7.911454190189146,63.89759944648737,55.98614525629822,493.69699820244296,575.9422678878627
1.710402120346236E12,2.3043478260869565,-6.141304347826087,4.684782608695652,-7.897606837464195,63.900772798153504,56.00316596068931,493.6881993637323,575.9500570237705
1.710402120365768E12,2.3369565217391304,-6.1521739130434785,4.826086956521739,-7.871282442961031,63.898537027661455,56.02725458470042,493.68365570111945,575.9762371750161
1.7104021203852998E12,2.3369565217391304,-6.173913043478261,4.760869565217392,-7.840414385844992,63.891685472927755,56.05127108708276,493.6713229025988,575.9936184875511
1.7104021204048315E12,2.3043478260869565,-6.108695652173913,4.793478260869565,-7.782212231422929,63.936040274624865,56.15382804320193,493.66685136161465,576.038333897392
1.7104021204243635E12,2.3478260869565215,-6.065217391304348,4.717391304347826,-7.738001672983369,63.962797398900676,56.22479572591731,493.67168351074264,576.0660286028419
1.7104021204438953E12,2.293478260869565,-6.054347826086956,4.760869565217392,-7.704465115602627,63.98443388753341,56.27996877193079,493.67694838964326,576.0593934129946
1.710402120463427E12,2.3260869565217392,-6.108695652173913,4.760869565217392,-7.744059889800536,63.98616480662404,56.2421049168235,493.6861078364978,575.9975851771337
1.710402120482959E12,2.3478260869565215,-6.130434782608695,4.782608695652174,-7.82332155982513,63.941377275154274,56.11805571532914,493.6974309322156,575.9390224145678
1.7104021205024907E12,2.3478260869565215,-6.119565217391304,4.815217391304348,-7.892774688336217,63.85324464479025,55.960469956454034,493.6723326054016,575.8904845584017
1.7104021205220225E12,2.3478260869565215,-6.0978260869565215,4.804347826086956,-7.909795392727303,63.82533357445402,55.91553818172672,493.67795809244615,575.8780796382523
1.7104021205415544E12,2.358695652173913,-6.0978260869565215,4.793478260869565,-7.931431881360041,63.81559715456929,55.88416527320925,493.6787514303627,575.8806760168882
1.7104021205610862E12,2.3260869565217392,-6.1521739130434785,4.663043478260869,-7.931071273216162,63.813794113849895,55.88272284063373,493.6703131997959,575.8751947731013
1.710402120580618E12,2.3043478260869565,-6.130434782608695,5.010869565217392,-7.9298452055269735,63.808817721464365,55.87897251593739,493.67016895653836,575.8743293135559
1.71040212060015E12,2.4565217391304346,-6.0978260869565215,4.695652173913043,-7.929412475754318,63.805572248169454,55.876159772415136,493.676732024757,575.8755553812451
1.7104021206196816E12,2.3478260869565215,-6.119565217391304,4.641304347826087,-7.9151323932567115,63.80319223441985,55.88805984116314,493.67370291634836,575.8637274341258
1.7104021206392134E12,2.282608695652174,-6.065217391304348,4.913043478260869,-7.917656650263864,63.81595776271317,55.8983011124493,493.69288726960275,575.8824790576076
1.7104021206587454E12,2.391304347826087,-6.0978260869565215,4.804347826086956,-7.909579027840976,63.807952261919056,55.89837323407808,493.67226048377285,575.8697856509431
1.710402120678277E12,2.4239130434782608,-6.1521739130434785,4.8478260869565215,-7.9095069062122,63.78703698957408,55.877530083361876,493.69281514797393,575.8803154087443
1.710402120697809E12,2.4130434782608696,-6.119565217391304,4.880434782608695,-7.9089299331819936,63.786892746316525,55.87796281313453,493.67327018657573,575.8666122992769
1.7104021207173408E12,2.4456521739130435,-6.130434782608695,4.804347826086956,-7.912536014620783,63.7917248954445,55.87918888082372,493.6695198618794,575.8584625552253
1.7104021207368726E12,2.380434782608696,-6.0978260869565215,4.8478260869565215,-7.924940934770219,63.796124314799826,55.871183380029606,493.66901501047795,575.8680547318525
1.7104021207564045E12,2.391304347826087,-6.108695652173913,4.858695652173913,-7.925517907800425,63.780906651128134,55.85538874332771,493.6594228338508,575.8762765975329
1.7104021207759363E12,2.391304347826087,-6.0978260869565215,4.804347826086956,-7.919387569354483,63.7822048404461,55.862817271091615,493.634901480067,575.861419542005
1.710402120795468E12,2.358695652173913,-6.130434782608695,4.8478260869565215,-7.931431881360041,63.7780217859771,55.84658990461706,493.6750732272951,575.8622128799216
1.710402120815E12,2.380434782608696,-6.130434782608695,4.858695652173913,-7.928474894580233,63.77607450200016,55.84759960741992,493.673486551462,575.8639437990122
1.7104021208345317E12,2.380434782608696,-6.119565217391304,4.804347826086956,-7.918522109809174,63.772684785447694,55.85416267563852,493.67997749805187,575.8588231633692
1.7104021208540635E12,2.369565217391304,-6.108695652173913,4.880434782608695,-7.936191908859243,63.790498827755314,55.85430691889607,493.6935363642617,575.8619243934065
1.7104021208735955E12,2.369565217391304,-6.108695652173913,4.858695652173913,-7.922633042649394,63.77333388010668,55.85070083745728,493.6520664277156,575.8526928249232
1.7104021208931272E12,2.380434782608696,-6.119565217391304,4.804347826086956,-7.925806394315528,63.77939209692384,55.853585702608314,493.66274042877444,575.8536304060973
1.710402120912659E12,2.402173913043478,-6.119565217391304,4.804347826086956,-7.916719069089779,63.77016052844054,55.85344145935076,493.6521385493444,575.8524764600369
1.710402120932191E12,2.402173913043478,-6.08695652173913,4.815217391304348,-7.929123989239215,63.7711702312434,55.84204624200419,493.65949495547954,575.8609146906036
1.7104021209517227E12,2.391304347826087,-6.08695652173913,4.804347826086956,-7.940230720070687,63.768573852607474,55.82834313253679,493.6843047957784,575.8711559618898
1.7104021209712544E12,2.380434782608696,-6.108695652173913,4.826086956521739,-7.93229734090535,63.77023265006932,55.83793530916397,493.70262368948744,575.8609146906036
1.7104021209907864E12,2.391304347826087,-6.0978260869565215,4.826086956521739,-7.934605233026176,63.771819325902385,55.83721409287621,493.7136582986902,575.8743293135559
1.710402121010318E12,2.391304347826087,-6.119565217391304,4.83695652173913,-7.931936732761471,63.77174720427361,55.83981047151214,493.701469743427,575.8686317048827
1.7104021210298499E12,2.369565217391304,-6.0978260869565215,4.83695652173913,-7.935975543972916,63.76604959560032,55.830074051627406,493.6913727153984,575.8857245309025
1.7104021210493818E12,2.358695652173913,-6.119565217391304,4.826086956521739,-7.937129490033328,63.76799687957727,55.83086738954394,493.71163889308446,575.8839214901831
1.7104021210689136E12,2.369565217391304,-6.0978260869565215,4.826086956521739,-7.9435483149943735,63.76915082563768,55.82560251064331,493.6858193499827,575.876204475904
1.7104021210884456E12,2.3478260869565215,-6.119565217391304,4.826086956521739,-7.947587126205818,63.779536340181394,55.83194921397558,493.67810233570367,575.8835608820392
1.7104021211079773E12,2.3478260869565215,-6.130434782608695,4.804347826086956,-7.931864611132696,63.781772110673444,55.84990749954075,493.6786071871051,575.8756275028738
1.710402121127509E12,2.369565217391304,-6.108695652173913,4.826086956521739,-7.906261432917289,63.79727826086024,55.89101682794295,493.6994503378213,575.8743293135559
1.710402121147041E12,2.369565217391304,-6.108695652173913,4.858695652173913,-7.9024389865921725,63.80672619422987,55.904287207637694,493.6944739454358,575.8761323542753
1.7104021211665728E12,2.358695652173913,-6.119565217391304,4.8478260869565215,-7.9192433260969315,63.772684785447694,55.85344145935076,493.6781744573325,575.8834887604104
1.7104021211861045E12,2.380434782608696,-6.130434782608695,4.83695652173913,-7.942682855449064,63.758981675980294,55.81629882053123,493.70745583861543,575.8767093273055
1.7104021212056365E12,2.4130434782608696,-6.130434782608695,4.891304347826087,-7.958549613779738,63.74830767492148,55.78975806114174,493.7064461358126,575.8743293135559
1.7104021212251682E12,2.380434782608696,-6.119565217391304,4.815217391304348,-7.949245923667661,63.752779215905576,55.803533292237915,493.70183035157095,575.8789450977976
1.7104021212447E12,2.358695652173913,-6.130434782608695,4.8478260869565215,-7.953140491621554,63.76482352791113,55.81168303628958,493.70154186505584,575.8772863003358
1.710402121264232E12,2.402173913043478,-6.119565217391304,4.804347826086956,-7.829163411755969,63.79266247661859,55.96349906486262,493.7381075308451,576.0482866821632
1.7104021212837637E12,2.3478260869565215,-6.0978260869565215,4.869565217391305,-7.803632355169339,64.69908710707273,56.89545475190339,493.7251256376655,575.4889834510069
1.7104021213032954E12,2.402173913043478,-6.119565217391304,4.891304347826087,-8.138709442461662,63.98248660355647,55.843777161094806,493.7346456926639,575.5493492542922
1.7104021213228274E12,2.467391304347826,-6.08695652173913,4.695652173913043,-8.005428672484001,63.82706449354464,55.82163582106064,493.70918675770605,575.8479327974239
1.7104021213423591E12,2.1956521739130435,-6.141304347826087,4.956521739130435,-7.943836801509477,63.84199367070123,55.89815686919175,493.72296198880224,575.9196938180559
1.7104021213618909E12,2.4456521739130435,-6.0978260869565215,4.684782608695652,-7.930061570413301,63.81718383040236,55.887122259989056,493.70803281164564,575.9532303754366
1.7104021213814229E12,2.3478260869565215,-6.065217391304348,4.858695652173913,-7.921911826361636,63.81523654642541,55.893324720063774,493.7192116641059,575.9507061184295
1.7104021214009546E12,2.391304347826087,-6.08695652173913,4.706521739130435,-7.920180907271017,63.829372385665465,55.90919147839445,493.7186346910757,575.9652746874422
1.7104021214204863E12,2.3369565217391304,-6.130434782608695,4.75,-7.909074176439545,63.81963596578073,55.91056178934119,493.6987291215336,575.9755159587284
1.7104021214400183E12,2.369565217391304,-6.163043478260869,4.826086956521739,-7.882677660307606,63.826992371915864,55.94431471160826,493.6894254314215,575.9840984325526
1.71040212145955E12,2.369565217391304,-6.195652173913043,4.793478260869565,-7.85159323830524,63.83312271036181,55.98152947205657,493.7013255001695,575.9978736636489
1.710402121479082E12,2.3478260869565215,-6.1521739130434785,4.771739130434782,-7.81870577558348,63.83831546763367,56.01960969205019,493.68509813369496,576.0370357080741
1.7104021214986138E12,2.358695652173913,-6.08695652173913,4.706521739130435,-7.7700957977885965,63.89197395944286,56.12187816165426,493.68531449858125,576.0967524167005
1.7104021215181455E12,2.369565217391304,-6.043478260869565,4.75,-7.719394292759215,63.902359473986564,56.18296518122735,493.6994503378213,576.115576161811
1.7104021215376775E12,2.3369565217391304,-6.0978260869565215,4.75,-7.707277859124883,63.92810689545952,56.22082903633464,493.6894254314215,576.0798759555669
1.7104021215572092E12,2.3260869565217392,-6.130434782608695,4.717391304347826,-7.746295660292586,63.892550932473064,56.146255272180476,493.7139467852053,576.0128028408054
1.710402121576741E12,2.358695652173913,-6.108695652173913,4.771739130434782,-7.873590335081857,63.81862626297787,55.945035927896015,493.70622977092626,575.9377963468786
1.710402121596273E12,2.380434782608696,-6.141304347826087,4.771739130434782,-7.905828703144635,63.76388594673705,55.85805724359241,493.6959163780113,575.9078658709367
1.7104021216158047E12,2.3369565217391304,-6.1521739130434785,4.739130434782608,-7.941096179615997,63.7595586490105,55.818462469394504,493.70024367573785,575.8911336530607
1.7104021216353364E12,2.3260869565217392,-6.163043478260869,4.804347826086956,-7.953284734879105,63.74102339041512,55.78773865553602,493.70110913528316,575.8879603013945
1.7104021216548684E12,2.391304347826087,-6.195652173913043,4.75,-7.965617533399765,63.74434098533881,55.778723451939044,493.7101243388801,575.8875275716218
1.7104021216744001E12,2.3043478260869565,-6.141304347826087,4.923913043478261,-7.952563518591347,63.74845191817903,55.79588839958768,493.7133698121751,575.89293669378
1.710402121693932E12,2.402173913043478,-6.076086956521739,4.6521739130434785,-7.952419275333796,63.76006350041193,55.807644225078135,493.6878387555884,575.8986343024534
1.7104021217134639E12,2.2717391304347827,-6.065217391304348,4.913043478260869,-7.944269531282131,63.74845191817903,55.8041823868969,493.73176082751286,575.9026731136648
1.7104021217329956E12,2.3260869565217392,-6.130434782608695,4.782608695652174,-7.94325982847927,63.738427011779194,55.795167183299924,493.7425069502005,575.9010864378317
1.7104021217525273E12,2.4239130434782608,-6.119565217391304,4.728260869565217,-7.941528909388651,63.73323425450734,55.791705345118686,493.74344453137456,575.9010864378317
1.7104021217720593E12,2.3478260869565215,-6.0978260869565215,4.804347826086956,-7.9449186259411135,63.71880992875218,55.773891302811066,493.7272892865288,575.9007258296879
1.710402121791591E12,2.3369565217391304,-6.119565217391304,4.760869565217392,-7.947298639690715,63.712895955192565,55.76559731550185,493.7204377317951,575.9014470459756
1.7104021218111228E12,2.293478260869565,-6.0978260869565215,4.8478260869565215,-7.938716165866396,63.69623585894536,55.75751969307896,493.7102685821377,575.9123374119207
1.7104021218306548E12,2.293478260869565,-6.108695652173913,4.793478260869565,-7.9638144926803704,63.71044381981419,55.74662932713382,493.73118385448265,575.9147895472992
1.7104021218501865E12,2.3152173913043477,-6.130434782608695,4.717391304347826,-7.966699357831402,63.70582803557254,55.739128677741135,493.694401823807,575.9148616689279
1.7104021218697185E12,2.3043478260869565,-6.08695652173913,4.760869565217392,-7.95782839749198,63.68433579019735,55.72650739270537,493.6828623632029,575.9002930999152
1.7104021218892502E12,2.3369565217391304,-6.0978260869565215,4.717391304347826,-7.958910221923617,63.67892666803917,55.72001644611555,493.702767932745,575.906784046505
1.710402121908782E12,2.3369565217391304,-6.141304347826087,4.728260869565217,-7.963165398021388,63.66933449141199,55.7061690933906,493.6804102278245,575.8987064240821
1.710402121928314E12,2.3043478260869565,-6.141304347826087,4.728260869565217,-7.967348452490384,63.66666599114728,55.6993175386569,493.66432710460754,575.9075052627928
1.7104021219478457E12,2.3043478260869565,-6.108695652173913,4.771739130434782,-7.971170898815501,63.662699301564615,55.691528402749114,493.6737750379771,575.9168089529048
1.7104021219673774E12,2.3043478260869565,-6.119565217391304,4.760869565217392,-7.963958735937922,63.66104050410277,55.69708176816485,493.6933199993754,575.935416333129
1.7104021219869094E12,2.3369565217391304,-6.130434782608695,4.760869565217392,-7.961434478930769,63.6570738145201,55.695639335589334,493.69368060751924,575.9434218339231
1.7104021220064412E12,2.3152173913043477,-6.0978260869565215,4.760869565217392,-7.961506600559545,63.654982287285605,55.69347568672606,493.70889827119095,575.9401763606282
1.710402122025973E12,2.293478260869565,-6.08695652173913,4.771739130434782,-7.964968438740783,63.6564968414899,55.691528402749114,493.6970703240717,575.9342623870685
1.710402122045505E12,2.3152173913043477,-6.108695652173913,4.782608695652174,-7.968863006694676,63.65332348982376,55.68446048312909,493.7123601093722,575.93830119828
1.7104021220650366E12,2.293478260869565,-6.08695652173913,4.760869565217392,-7.969512101353658,63.65144832747559,55.681936226121934,493.70990797399384,575.9424842527491
1.7104021220845684E12,2.293478260869565,-6.108695652173913,4.739130434782608,-7.967204209232833,63.64914043535477,55.681936226121934,493.69216605331496,575.9445757799836
1.7104021221041003E12,2.293478260869565,-6.08695652173913,4.771739130434782,-7.960136289612805,63.647121029749044,55.68698474013624,493.7061576492975,575.940897576916
1.710402122123632E12,2.3152173913043477,-6.119565217391304,4.760869565217392,-7.954582924197069,63.676763019175894,55.722180094978825,493.71841832618935,575.9464509423317
1.7104021221431638E12,2.3152173913043477,-6.119565217391304,4.739130434782608,-7.9370573684045524,63.67084904561628,55.73379167721173,493.72938081376327,575.9427006176354
1.7104021221626958E12,2.282608695652174,-6.108695652173913,4.793478260869565,-7.924868813141443,63.67106541050261,55.74619659736116,493.711134041683,575.946667307218
1.7104021221822275E12,2.3152173913043477,-6.141304347826087,4.782608695652174,-7.929773083898198,63.629956082100406,55.70018299820221,493.7267123134986,575.9638322548667
1.7104021222017593E12,2.293478260869565,-6.108695652173913,4.771739130434782,-7.9648241954832315,63.641134934560654,55.67631073907742,493.72620746209714,575.958278889451
1.7104021222212913E12,2.3369565217391304,-6.141304347826087,4.815217391304348,-7.9648241954832315,63.63002820372918,55.66520400824595,493.70096489202564,575.9566922136179
1.710402122240823E12,2.358695652173913,-6.0978260869565215,4.771739130434782,-7.95011138321297,63.63248033910756,55.68236895589459,493.6788956736202,575.9542400782395
1.710402122260355E12,2.3478260869565215,-6.108695652173913,4.782608695652174,-7.939942233555584,63.629306987441424,55.68936475388584,493.6834393362331,575.9751553505845
1.7104021222798867E12,2.3260869565217392,-6.119565217391304,4.858695652173913,-7.828153708953108,63.659598071527256,55.831444362574146,493.67045744305346,576.1160810132124
1.7104021222994185E12,2.358695652173913,-6.119565217391304,4.815217391304348,-7.903088081251155,64.74098977339146,56.837901692140306,493.6840884308921,575.3781325075785
1.7104021223189504E12,2.380434782608696,-6.065217391304348,4.9021739130434785,-8.125871792539572,63.84141669767102,55.71554490513145,493.691516958656,575.6088495980322
1.7104021223384822E12,2.4347826086956523,-6.010869565217392,4.663043478260869,-7.950832599500728,63.68851884466635,55.73768624516562,493.67766960593104,575.9566922136179
1.710402122358014E12,2.1630434782608696,-6.173913043478261,4.923913043478261,-7.91772877189264,63.67791696523631,55.760188193343666,493.632016614916,575.9788335536521
1.710402122377546E12,2.4239130434782608,-6.054347826086956,4.739130434782608,-7.920397272157344,63.67445512705507,55.754057854897724,493.64218576457336,576.0034991506933
1.7104021223970776E12,2.391304347826087,-6.08695652173913,4.793478260869565,-7.899986851213796,63.68469639834123,55.784709547127434,493.64615245415604,576.0117210163738
1.7104021224166094E12,2.3478260869565215,-6.065217391304348,4.793478260869565,-7.8996983646986925,63.688374601408796,55.7886762367101,493.65596099566955,576.0112161649723
1.7104021224361414E12,2.358695652173913,-6.1521739130434785,4.739130434782608,-7.868974550840206,63.70308741367906,55.83411286283885,493.6356948179835,576.0340065996655
1.710402122455673E12,2.358695652173913,-6.163043478260869,4.815217391304348,-7.851448995047688,63.71087654958684,55.85942755453915,493.6628125504032,576.0375405594755
1.7104021224752048E12,2.369565217391304,-6.206521739130435,4.83695652173913,-7.8139457480842776,63.72941180818222,55.91546606009794,493.6417530348007,576.0754044145829
1.7104021224947368E12,2.369565217391304,-6.228260869565217,4.826086956521739,-7.7711055005914575,63.7500385940121,55.97893309342064,493.65891798244934,576.103676093063
1.7104021225142686E12,2.369565217391304,-6.119565217391304,4.793478260869565,-7.722351279539023,63.78169998904467,56.05934870950565,493.6605046582824,576.1369241639286
1.7104021225338003E12,2.3478260869565215,-6.043478260869565,4.804347826086956,-7.674390396403122,63.819275357636855,56.144884961233736,493.6832950929755,576.1725522485439
1.7104021225533323E12,2.3369565217391304,-6.054347826086956,4.793478260869565,-7.678501329243342,63.83196876430139,56.153467435058054,493.66771682115996,576.1305774605963
1.710402122572864E12,2.3478260869565215,-6.076086956521739,4.771739130434782,-7.77225944665187,63.77780542109078,56.00554597443891,493.667067726501,576.038045410877
1.7104021225923958E12,2.3478260869565215,-6.076086956521739,4.804347826086956,-7.841640453534181,63.71967538829749,55.878034934763306,493.6902908909668,575.9890027033094
1.7104021226119277E12,2.369565217391304,-6.076086956521739,4.793478260869565,-7.8952268237145935,63.67438300542629,55.7791561817117,493.7088261495622,575.9732080666075
1.7104021226314595E12,2.369565217391304,-6.119565217391304,4.858695652173913,-7.917945136778967,63.661689598761754,55.743744461982786,493.6863963230129,575.9670056065328
1.7104021226509915E12,2.3260869565217392,-6.163043478260869,4.75,-7.930638543443507,63.66327627459482,55.732637731151314,493.6632452801759,575.9700347149413
1.7104021226705232E12,2.3369565217391304,-6.1521739130434785,4.934782608695652,-7.932946435564332,63.669046004896884,55.73609956933255,493.68452116066476,575.970467444714
1.710402122690055E12,2.391304347826087,-6.108695652173913,4.8478260869565215,-7.947010153175611,63.683758817167146,55.736748663991534,493.6598555636234,575.9750832289557
1.710402122709587E12,2.3478260869565215,-6.141304347826087,4.619565217391305,-7.916574825832227,63.67957576269815,55.76300093686592,493.66829379419016,575.978184458993
1.7104021227291187E12,2.25,-6.043478260869565,4.891304347826087,-7.929773083898198,63.6913315881886,55.761558504290406,493.67442413263615,575.9838820676663
1.7104021227486504E12,2.282608695652174,-6.0978260869565215,4.880434782608695,-7.927537313406147,63.69190856121881,55.76437124781266,493.6690871321067,575.99426758221
1.7104021227681824E12,2.3478260869565215,-6.1521739130434785,4.804347826086956,-7.930350056928404,63.680008492470805,55.7496584355424,493.6849538904374,575.9830887297499
1.710402122787714E12,2.3043478260869565,-6.119565217391304,4.793478260869565,-7.933451286965763,63.679143032925495,55.74569174595973,493.6967818375566,575.9915269603166
1.7104021228072458E12,2.282608695652174,-6.0978260869565215,4.760869565217392,-7.93229734090535,63.672291478191795,55.739994137286445,493.683799944377,575.9975851771337
1.7104021228267778E12,2.217391304347826,-6.108695652173913,4.782608695652174,-7.938716165866396,63.676402411032015,55.73768624516562,493.6891369449064,575.994628190354
1.7104021228463096E12,2.25,-6.119565217391304,4.83695652173913,-7.945711963857647,63.677051505691,55.73133954183335,493.6893533097927,575.9943397038388
1.7104021228658413E12,2.3152173913043477,-6.141304347826087,4.760869565217392,-7.94463013942601,63.68520124974266,55.74057111031665,493.6933199993754,575.9824396350908
1.7104021228853733E12,2.293478260869565,-6.0978260869565215,4.793478260869565,-7.943620436623149,63.67871030315284,55.73508986652969,493.67911203850656,575.9809250808865
1.710402122904905E12,2.293478260869565,-6.108695652173913,4.782608695652174,-7.9366967602606735,63.67301269447955,55.73631593421888,493.6721883621441,575.9737850396377
1.7104021229244368E12,2.3043478260869565,-6.119565217391304,4.75,-7.939365260525378,63.6612568689891,55.72189160846372,493.6625240638881,575.9827281216059
1.7104021229439688E12,2.3152173913043477,-6.108695652173913,4.782608695652174,-7.939942233555584,63.66421385576891,55.72427162221332,493.6437724404064,575.9848196488405
1.7104021229635005E12,2.293478260869565,-6.108695652173913,4.793478260869565,-7.9421780040476335,63.66248293667829,55.720304932630654,493.6614422394565,575.9805644727427
1.7104021229830322E12,2.3260869565217392,-6.141304347826087,4.804347826086956,-7.9511210860158315,63.67358966750976,55.72246858149393,493.65740342824506,575.9939069740661
1.7104021230025642E12,2.3152173913043477,-6.141304347826087,4.793478260869565,-7.9264554889745105,63.653107124937435,55.726651635962924,493.6512009681703,575.9979457852776
1.710402123022096E12,2.3260869565217392,-6.130434782608695,4.815217391304348,-7.950471991356849,63.6776284787212,55.727156487364354,493.61564500518386,575.9992439745956
1.710402123041628E12,2.3152173913043477,-6.130434782608695,4.8478260869565215,-7.939076774010275,63.67185874841914,55.732781974408866,493.6416809131719,575.99426758221
1.7104021230611597E12,2.3478260869565215,-6.141304347826087,4.815217391304348,-7.949101680410109,63.685633979515316,55.73653229910521,493.6253814250686,576.0047252183825
1.7104021230806914E12,2.3260869565217392,-6.163043478260869,4.869565217391305,-7.95011138321297,63.693711601938205,55.743600218725234,493.6515615763142,575.9863342030447
1.7104021231002234E12,2.3152173913043477,-6.141304347826087,4.815217391304348,-7.941745274274979,63.67669089754712,55.73494562327214,493.6897139179366,575.9871275409613
1.7104021231197551E12,2.3260869565217392,-6.0978260869565215,4.83695652173913,-7.9394373821541535,63.674671491941396,55.73523410978724,493.6740635244922,575.9889305816806
1.7104021231392869E12,2.3260869565217392,-6.130434782608695,4.858695652173913,-7.944269531282131,63.67935939781182,55.73508986652969,493.6902908909668,575.9868390544461
1.7104021231588188E12,2.3152173913043477,-6.119565217391304,4.815217391304348,-7.938211314464965,63.6821000197053,55.74388870524034,493.6762992949843,575.9850360137267
1.7104021231783506E12,2.3043478260869565,-6.108695652173913,4.793478260869565,-7.9325858274204535,63.69140370981738,55.758817882396926,493.69937821619254,575.9938348524374
1.7104021231978823E12,2.3260869565217392,-6.108695652173913,4.782608695652174,-7.9163584609459,63.69436069659719,55.778002235651286,493.6815641738849,575.9951330417554
1.7104021232174143E12,2.282608695652174,-6.130434782608695,4.83695652173913,-7.911093582045267,63.704818332769676,55.79372475072441,493.690867863997,575.9870554193325
1.710402123236946E12,2.282608695652174,-6.1521739130434785,4.782608695652174,-7.925373664542874,63.67791696523631,55.75254330069343,493.6297808444239,576.0131634489493
1.7104021232564778E12,2.293478260869565,-6.119565217391304,4.760869565217392,-7.956385964916464,63.674671491941396,55.71828552702493,493.6132649914343,575.9949887984978
1.7104021232760098E12,2.2391304347826084,-6.0978260869565215,4.771739130434782,-7.962876911506285,63.67474361357017,55.71186670206389,493.58766181321886,575.9922481766043
1.7104021232955415E12,2.260869565217391,-6.108695652173913,4.728260869565217,-7.956385964916464,63.672868451222,55.71648248630554,493.59422488143747,575.9979457852776
1.7104021233150732E12,2.2717391304347827,-6.119565217391304,4.717391304347826,-7.954150194424415,63.6704884374724,55.716338243047986,493.58499331295417,576.0004700422847
1.7104021233346052E12,2.282608695652174,-6.141304347826087,4.75,-7.807526923123232,63.74874040469413,55.9412134815709,493.5970376249597,576.1581279227887
1.710402123354137E12,2.2391304347826084,-6.108695652173913,4.75,-7.784375880286203,64.66598327946464,56.881607399178435,493.59747035473237,575.565504499138
1.7104021233736687E12,2.3260869565217392,-6.141304347826087,4.760869565217392,-8.13171364447041,63.81660685737215,55.68489321290174,493.6249486952959,575.7342691104733
1.7104021233932007E12,2.391304347826087,-6.130434782608695,4.543478260869565,-7.997783779833768,63.720612969471574,55.72282918963781,493.63619966938495,575.9698904716838
1.7104021234127324E12,2.108695652173913,-6.1521739130434785,4.8478260869565215,-7.95696293794667,63.737922160377764,55.78095922243109,493.5940085165511,576.0213853146297
1.7104021234322644E12,2.3260869565217392,-6.043478260869565,4.684782608695652,-7.937634341434759,63.730854240757736,55.79321989932298,493.59162850280154,576.0403533029978
1.7104021234517961E12,2.3043478260869565,-6.054347826086956,4.75,-7.923642745452255,63.72313722647873,55.79949448102647,493.59956188196685,576.0398484515963
1.710402123471328E12,2.2717391304347827,-6.108695652173913,4.793478260869565,-7.91001175761363,63.71693476640401,55.80692300879038,493.60324008503443,576.0504503310264
1.7104021234908599E12,2.260869565217391,-6.1521739130434785,4.706521739130435,-7.891548620647028,63.71657415826013,55.8250255376131,493.6010764361711,576.0540564124652
1.7104021235103916E12,2.282608695652174,-6.163043478260869,4.804347826086956,-7.861906631220178,63.73063787587141,55.86873124465123,493.61009163976814,576.0748274415527
1.7104021235299233E12,2.3260869565217392,-6.195652173913043,4.782608695652174,-7.837168912550082,63.74563917465677,55.90847026210669,493.6098752748818,576.0986275790486
1.7104021235494553E12,2.3260869565217392,-6.163043478260869,4.782608695652174,-7.803848720055666,63.750254958898424,55.946406238842755,493.6411039401417,576.1318035282854
1.710402123568987E12,2.3043478260869565,-6.119565217391304,4.75,-7.728409496356189,63.77585813711383,56.04744864075764,493.6057643420416,576.1867602094127
1.7104021235885188E12,2.3152173913043477,-6.065217391304348,4.717391304347826,-7.690978371021554,63.8164626141146,56.12548424309305,493.6233620194629,576.2012566567965
1.7104021236080508E12,2.3043478260869565,-6.08695652173913,4.728260869565217,-7.679655275303754,63.80319223441985,56.1235369591161,493.60396130132216,576.1703885996806
1.7104021236275825E12,2.3260869565217392,-6.108695652173913,4.717391304347826,-7.748531430784635,63.78783032749062,56.03929889670598,493.64074333199784,576.103315484919
1.7104021236471143E12,2.3152173913043477,-6.130434782608695,4.782608695652174,-7.859887225614456,63.71491536079829,55.85502813518383,493.6131207481767,576.036747221559
1.7104021236666462E12,2.3260869565217392,-6.1521739130434785,4.75,-7.891981350419683,63.67351754588098,55.7815361954613,493.58975334045334,576.0121537461464
1.710402123686178E12,2.3260869565217392,-6.119565217391304,4.782608695652174,-7.919748177498362,63.64654405671884,55.726795879220475,493.59927339545175,576.0097737323969
1.7104021237057097E12,2.282608695652174,-6.130434782608695,4.760869565217392,-7.918089380036519,63.6338506500543,55.71576127001778,493.6173038026457,576.0109276784573
1.7104021237252417E12,2.391304347826087,-6.141304347826087,4.771739130434782,-7.925157299656546,63.6290906225551,55.70393332289855,493.595667314013,576.0194380306529
1.7104021237447734E12,2.293478260869565,-6.076086956521739,4.826086956521739,-7.9353264493139335,63.64142342107576,55.70609697176182,493.5919891109454,576.0231162337203
1.7104021237643052E12,2.3043478260869565,-6.08695652173913,4.554347826086956,-7.921767583104084,63.63240821747878,55.7106406343747,493.5806660152276,576.0205198550844
1.7104021237838372E12,2.25,-6.065217391304348,4.83695652173913,-7.925445786171649,63.63925977221248,55.71381398604083,493.5971097465885,576.026145342129
1.710402123803369E12,2.3152173913043477,-6.0978260869565215,4.717391304347826,-7.924147596853685,63.634932474485936,55.71078487763225,493.5949460977252,576.0243423014095
1.710402123822901E12,2.3478260869565215,-6.130434782608695,4.706521739130435,-7.912536014620783,63.61380083725463,55.701264822633846,493.5794399475384,576.0254241258411
