Shimmer_6D72_TimestampSync_Unix_CAL,Shimmer_6D72_Accel_LN_X_CAL,Shimmer_6D72_Accel_LN_Y_CAL,Shimmer_6D72_Accel_LN_Z_CAL,Shimmer_6D72_ECG_LA-RA_24BIT_CAL,Shimmer_6D72_ECG_LL-LA_24BIT_CAL,Shimmer_6D72_ECG_LL-RA_24BIT_CAL,Shimmer_6D72_ECG_RESP_24BIT_CAL,Shimmer_6D72_ECG_Vx-RL_24BIT_CAL
ms,m/(s^2),m/(s^2),m/(s^2),mV,mV,mV,mV,mV
1.7104000056332295E12,1.9782608695652173,-6.423913043478261,3.032608695652174,1.7558731741754026,28.375245139032025,30.131118313207427,493.1219003345848,569.3740790336227
1.7104000056527615E12,1.9782608695652173,-6.413043478260869,3.0760869565217392,1.801886773334357,28.394068884142506,30.195955657476862,493.12103487503947,569.3726366010471
1.7104000056722932E12,1.9782608695652173,-6.423913043478261,3.032608695652174,1.817465045149928,28.379356071872245,30.19682111702217,493.1332955519314,569.376531169001
1.710400005691825E12,1.9782608695652173,-6.423913043478261,3.0652173913043477,1.786380623147562,28.317836322526496,30.104216945674057,493.1400749850363,569.3887918458929
1.710400005711357E12,1.967391304347826,-6.413043478260869,3.0760869565217392,1.7661865670903407,28.238718895759455,30.004905462849795,493.1487295804894,569.3873494133175
1.7104000057308887E12,1.9782608695652173,-6.423913043478261,3.0869565217391304,1.7614265395911384,28.22883823261717,29.99026477220831,493.14043559318014,569.3951385492252
1.7104000057504207E12,1.9891304347826086,-6.391304347826087,3.0543478260869565,1.765032621029928,28.203884149060745,29.968916770090672,493.1615672304115,569.4189386867212
1.7104000057699524E12,2.010869565217391,-6.369565217391304,3.0760869565217392,1.7636623100831879,28.125271573695134,29.88893388377832,493.16733696071356,569.4761311383404
1.7104000057894844E12,1.9891304347826086,-6.380434782608695,3.0978260869565215,2.0499130546943016,28.582234213618545,30.632147268312846,493.11959244246395,569.3557601399136
1.710400005809016E12,2.032608695652174,-6.380434782608695,3.0978260869565215,2.0599379610941364,29.132594362806604,31.19253232390074,493.1579611489727,568.9803670621357
1.710400005828548E12,1.9891304347826086,-6.369565217391304,3.108695652173913,1.7604168367882773,28.113732113091007,29.874148949879284,493.17555882639397,569.2265903027762
1.7104000058480798E12,2.0,-6.293478260869565,2.9891304347826084,1.7994346379559802,28.193354391259483,29.992789029215462,493.22337546627233,569.4737511245908
1.7104000058676118E12,1.9456521739130435,-6.304347826086956,3.152173913043478,1.8011655570465992,28.199484729705425,30.000650286752023,493.19503166616346,569.4933682076178
1.7104000058871436E12,2.0217391304347827,-6.391304347826087,3.0652173913043477,1.811190463446434,28.197393202470927,30.00858366591736,493.1829873541579,569.5152931827656
1.7104000059066755E12,2.0543478260869565,-6.413043478260869,3.043478260869565,1.817753531665031,28.19667198618317,30.0144255178482,493.18543948953624,569.5263277919684
1.7104000059262073E12,1.9565217391304348,-6.413043478260869,3.1956521739130435,1.8344857495410145,28.217659380156924,30.052145129697937,493.17772247525727,569.5522915783276
1.7104000059457393E12,2.0,-6.5,3.0760869565217392,1.8587186168096803,28.221553948110817,30.080272564920495,493.15038837795123,569.5678698501432
1.710400005965271E12,1.9782608695652173,-6.489130434782608,3.1956521739130435,1.875378713056888,28.233814625002697,30.109193338059587,493.1594035815482,569.5941942446464
1.710400005984803E12,2.010869565217391,-6.456521739130435,3.119565217391304,1.9135310546792812,28.26013901950586,30.173670074185143,493.17772247525727,569.6456890875922
1.7104000060043347E12,2.0,-6.423913043478261,3.0543478260869565,1.9662519653143842,28.2612208439375,30.227472809251886,493.2094559919186,569.6885293350851
1.7104000060238665E12,2.0,-6.380434782608695,3.141304347826087,2.03520024242404,28.29035798196292,30.32555822438696,493.20008018017774,569.7289895688283
1.7104000060433984E12,1.9891304347826086,-6.423913043478261,3.141304347826087,2.0400323915520184,28.312859930140966,30.352892321692984,493.2079414377143,569.7028815392115
1.7104000060629302E12,2.010869565217391,-6.423913043478261,3.0869565217391304,1.9320663132746594,28.331900040137775,30.263966353412435,493.18522312464995,569.6057337052505
1.7104000060824622E12,2.010869565217391,-6.423913043478261,3.108695652173913,1.8376591012071493,28.29172829290966,30.129387394116808,493.17656852919686,569.5404636312085
1.710400006101994E12,2.032608695652174,-6.445652173913043,3.0869565217391304,1.7690714322413723,28.24564257212193,30.014714004363302,493.1987819908598,569.4971185323142
1.710400006121526E12,2.010869565217391,-6.456521739130435,3.108695652173913,1.7560174174329541,28.238502530873127,29.99451994830608,493.19467105801954,569.4861560447403
1.7104000061410576E12,1.9456521739130435,-6.489130434782608,3.0760869565217392,1.7445500784576033,28.245714693750706,29.99026477220831,493.17426063707603,569.4781505439462
1.7104000061605896E12,2.010869565217391,-6.5,3.108695652173913,1.7365445776634907,28.24088254462273,29.97742712228622,493.2028929237,569.4790160034914
1.7104000061801213E12,1.9891304347826086,-6.413043478260869,3.0543478260869565,1.7397900509584012,28.242180733940693,29.981970784899094,493.1737557856746,569.4777899358022
1.7104000061996533E12,1.9782608695652173,-6.413043478260869,2.9565217391304346,1.7529161873955952,28.250186234734805,30.0031024221304,493.1865213139679,569.4805305576957
1.710400006219185E12,1.9456521739130435,-6.413043478260869,3.2391304347826084,1.7382033751253338,28.243551044887433,29.981754420012766,493.19640197711016,569.4827663281878
1.710400006238717E12,1.967391304347826,-6.489130434782608,3.0978260869565215,1.7499592006157878,28.24102678788028,29.990985988496067,493.20476808604815,569.477862057431
1.7104000062582488E12,1.9565217391304348,-6.456521739130435,3.0760869565217392,1.7516901197064068,28.228477624473292,29.9801677441797,493.2206348443788,569.4798814630368
1.7104000062777808E12,1.9456521739130435,-6.489130434782608,3.119565217391304,1.7485888896690476,28.23157885451065,29.9801677441797,493.2407567788073,569.4747608273937
1.7104000062973125E12,1.9239130434782608,-6.489130434782608,3.0543478260869565,1.734380928800217,28.225592759322257,29.959973688122474,493.1987819908598,569.4793766116353
1.7104000063168442E12,1.9456521739130435,-6.445652173913043,3.032608695652174,1.7389245914130917,28.21542360966487,29.954348201077963,493.1889013277175,569.4676207861448
1.7104000063363762E12,1.9239130434782608,-6.413043478260869,3.0978260869565215,1.7445500784576033,28.211240555195875,29.95579063365348,493.1750539749925,569.4632934884183
1.710400006355908E12,1.934782608695652,-6.445652173913043,3.043478260869565,1.7394294428145223,28.250402599621133,29.989832042435655,493.21262934358475,569.4648801642514
1.71040000637544E12,1.934782608695652,-6.445652173913043,3.0217391304347827,1.7656817156889102,28.280837926964516,30.046519642653426,493.2021717074122,569.4805305576957
1.7104000063949717E12,1.9239130434782608,-6.445652173913043,3.032608695652174,1.7940976374265716,28.29259375245497,30.08669138988154,493.2114032758955,569.4599758934946
1.7104000064145037E12,1.9239130434782608,-6.478260869565217,3.032608695652174,1.7875345692079747,28.25458565409013,30.042120223298102,493.18493463813485,569.4623559072443
1.7104000064340354E12,1.934782608695652,-6.456521739130435,3.0652173913043477,1.737482158837576,28.181742809026577,29.919224967864153,493.2072923430553,569.4784390304612
1.7104000064535674E12,1.9565217391304348,-6.434782608695652,3.0652173913043477,1.7322894015657189,28.16746272652897,29.89975212809469,493.18962254400526,569.4736790029621
1.710400006473099E12,1.967391304347826,-6.467391304347826,3.010869565217391,1.7392851995569707,28.145321386494803,29.884606586051774,493.17584731290907,569.4813238956123
1.710400006492631E12,1.9891304347826086,-6.467391304347826,3.0543478260869565,1.7331548611110283,28.122170343657775,29.855325204768803,493.2005129099504,569.4857233149676
1.7104000065121628E12,1.9565217391304348,-6.456521739130435,3.032608695652174,1.92983054278261,28.34156433839373,30.27139488117634,493.1605575276086,569.5419781854127
1.7104000065316948E12,2.0,-6.434782608695652,3.0978260869565215,2.1982672450861034,29.00941062085755,31.207677865943655,493.15752841920005,569.0636675433717
1.7104000065512266E12,2.010869565217391,-6.434782608695652,3.0543478260869565,1.7430355242533118,28.013410927463884,29.756446451717196,493.1510374726102,569.3235217718509
1.7104000065707585E12,1.9456521739130435,-6.413043478260869,3.0217391304347827,1.7852266770871494,28.121160640854914,29.906387317942063,493.1608460141237,569.5046913033357
1.7104000065902903E12,1.9239130434782608,-6.445652173913043,3.108695652173913,1.787462447579199,28.147196548842974,29.934658996422172,493.20577778885104,569.5370739146559
1.7104000066098223E12,1.9891304347826086,-6.423913043478261,3.0,1.7957564348884147,28.146186846040113,29.941943280928527,493.1998638152914,569.5622443630987
1.710400006629354E12,2.010869565217391,-6.358695652173913,3.0652173913043477,1.804338908712734,28.1474129137293,29.951751822442034,493.1767127724544,569.5725577560137
1.7104000066488857E12,2.043478260869565,-6.434782608695652,3.032608695652174,1.8241723566260764,28.15419234683423,29.978364703460304,493.1643799739337,569.5998197316909
1.7104000066684177E12,1.9782608695652173,-6.489130434782608,3.0978260869565215,1.828860262496503,28.18087734948127,30.009737611977773,493.138560430832,569.5880639062004
1.7104000066879495E12,1.967391304347826,-6.510869565217391,3.119565217391304,1.8584301302945772,28.204749608606058,30.063179738900633,493.1639472441611,569.6093397866892
1.7104000067074814E12,1.9565217391304348,-6.489130434782608,3.043478260869565,1.8833120922222248,28.22126546159571,30.104577553817936,493.16675998768335,569.6522521558109
1.7104000067270132E12,1.9891304347826086,-6.445652173913043,3.010869565217391,1.9306238806991436,28.244777112576617,30.175400993275762,493.1394258903773,569.6801632261471
1.7104000067465452E12,2.0,-6.445652173913043,3.0217391304347827,1.9988509415210418,28.279828224161655,30.278679165682696,493.1219003345848,569.7312974609491
1.710400006766077E12,1.9782608695652173,-6.434782608695652,2.9891304347826084,2.026689890228497,28.28949252241761,30.316182412646107,493.10358144087576,569.7241574197003
1.710400006785609E12,1.9891304347826086,-6.445652173913043,3.010869565217391,1.968776222321537,28.2680723986712,30.23684862099274,493.11093784701086,569.6389096544874
1.7104000068051406E12,1.9891304347826086,-6.423913043478261,3.010869565217391,1.8630459145362277,28.224150326746745,30.08719624128297,493.0900225746659,569.5622443630987
1.7104000068246726E12,1.9782608695652173,-6.456521739130435,2.9891304347826084,1.7731823650815923,28.16457786137794,29.93776022645953,493.10711540068576,569.5266162784835
1.7104000068442043E12,1.9782608695652173,-6.445652173913043,2.967391304347826,1.7682780943248386,28.126281276497995,29.894559370822833,493.1272373351142,569.504547060078
1.7104000068637363E12,1.9782608695652173,-6.467391304347826,2.9565217391304346,1.7562337823192815,28.132411614943937,29.88864539726322,493.12283791575885,569.5129852906448
1.710400006883268E12,1.967391304347826,-6.478260869565217,2.9239130434782608,1.7423143079655539,28.12909402002025,29.871408327985804,493.09817231871756,569.5111101282967
1.7104000069028E12,2.0,-6.456521739130435,3.0217391304347827,1.7376264020951275,28.13681103429926,29.874437436394388,493.1048796301937,569.511975587842
1.7104000069223318E12,2.032608695652174,-6.445652173913043,2.891304347826087,1.739862172587177,28.14128257528336,29.881144747870536,493.0974511024298,569.5238035349612
1.7104000069418638E12,1.967391304347826,-6.4021739130434785,2.9456521739130435,1.7356069964894054,28.153975981947898,29.889582978437303,493.1100002658368,569.5194762372347
1.7104000069613955E12,1.9782608695652173,-6.467391304347826,2.967391304347826,1.7411603619051412,28.15101899516809,29.892179357073232,493.13928164711973,569.5333957115884
1.7104000069809272E12,1.9891304347826086,-6.456521739130435,3.0,1.748084038267617,28.147485035358077,29.895569073625694,493.11959244246395,569.5282750759453
1.7104000070004592E12,2.0217391304347827,-6.489130434782608,2.9891304347826084,1.7526998225092678,28.143734710661736,29.896434533171004,493.12428034833437,569.5437091045034
1.710400007019991E12,2.010869565217391,-6.478260869565217,2.9782608695652173,1.7524834576229404,28.123901262748394,29.876384720371334,493.12175609132726,569.5408242393523
1.710400007039523E12,1.9891304347826086,-6.5,2.9782608695652173,1.755728930917851,28.112866653545698,29.86859558446355,493.1305549300379,569.5376508876861
1.7104000070590547E12,2.0217391304347827,-6.456521739130435,2.9130434782608696,1.755368322773972,28.11265028865937,29.868018611433342,493.1409404445816,569.5403915095796
1.7104000070785867E12,1.967391304347826,-6.423913043478261,2.9239130434782608,1.7493822275855815,28.115535153810402,29.864917381395983,493.1346658628781,569.5446466856774
1.7104000070981184E12,1.9565217391304348,-6.445652173913043,2.9565217391304346,1.741593091677796,28.11640061335571,29.857993705033508,493.1248573213646,569.5623886063563
1.7104000071176504E12,1.9891304347826086,-6.445652173913043,2.934782608695652,1.7479397950100655,28.110703004682424,29.85864279969249,493.1262997539401,569.5567631193118
1.7104000071371821E12,2.0,-6.434782608695652,2.9239130434782608,1.7354627532318538,28.11849214059021,29.853954893822063,493.12045790200926,569.5735674588165
1.710400007156714E12,1.967391304347826,-6.456521739130435,2.9456521739130435,1.7470022138359802,28.101976287600554,29.848978501436534,493.123775496933,569.5814287163531
1.7104000071762458E12,1.967391304347826,-6.478260869565217,2.9456521739130435,1.75334891716825,28.159312982477307,29.912661899645556,493.14137317435427,569.5833038787013
1.7104000071957778E12,1.9782608695652173,-6.456521739130435,2.9456521739130435,1.7815484740195842,28.195590161751532,29.977138635771116,493.15954782480577,569.5835923652163
1.7104000072153096E12,2.010869565217391,-6.456521739130435,2.9565217391304346,1.787462447579199,28.203451419288093,29.99091386686729,493.1016341568988,569.5792650674898
1.7104000072348416E12,1.9891304347826086,-6.467391304347826,2.9456521739130435,1.769215675498924,28.13695527755681,29.906170953055735,493.1069711574282,569.6102052462346
1.7104000072543733E12,1.9891304347826086,-6.445652173913043,2.9891304347826084,1.7423143079655539,28.108755720705478,29.85107002867103,493.07559824891075,569.6230428961567
1.710400007273905E12,1.9891304347826086,-6.467391304347826,2.9239130434782608,1.736111847890836,28.09296108400358,29.829072931894416,493.08627224996957,569.6399193572902
1.710400007293437E12,2.0217391304347827,-6.434782608695652,2.9565217391304346,1.732217279936943,28.089571367451118,29.82178864738806,493.1216118480697,569.6425157359262
1.7104000073129688E12,2.010869565217391,-6.478260869565217,2.934782608695652,1.7313518203916336,28.058270580562425,29.78962240095406,493.1087020765188,569.6751147121328
1.7104000073325007E12,2.0,-6.5,2.9239130434782608,2.008082510004343,28.392337965051887,30.40042047505623,493.13178099772705,569.545728510109
1.7104000073520325E12,2.0,-6.467391304347826,2.9782608695652173,2.2244473963317155,29.00299179589651,31.227439192228225,493.1635866360172,569.1350679558597
1.7104000073715645E12,2.0760869565217392,-6.434782608695652,2.8369565217391304,1.7348857802016475,28.032523159089468,29.767408939291116,493.1079087386023,569.5494067131766
1.7104000073910962E12,1.934782608695652,-6.413043478260869,3.032608695652174,1.792222475078401,28.165010591150594,29.957233066228994,493.1101445090943,569.6944433086447
1.7104000074106282E12,2.043478260869565,-6.467391304347826,2.8478260869565215,1.781981203792239,28.178497335731667,29.960478539523905,493.14021922829386,569.7468757327647
1.71040000743016E12,1.9782608695652173,-6.4021739130434785,2.9782608695652173,1.780538771216723,28.20453324371973,29.985072014936453,493.10127354875493,569.7579103419674
1.710400007449692E12,2.010869565217391,-6.434782608695652,2.891304347826087,1.8100365173860213,28.203884149060748,30.01392066644677,493.13149251121195,569.7856050474173
1.7104000074692236E12,2.010869565217391,-6.456521739130435,2.869565217391304,1.8163110990895153,28.232227949169634,30.048539048259148,493.130843416553,569.8107033742313
1.7104000074887556E12,1.967391304347826,-6.510869565217391,2.9782608695652173,1.8195565723844258,28.250330477992357,30.06988705037678,493.13264645727236,569.8290222679403
1.7104000075082874E12,2.0,-6.510869565217391,2.934782608695652,1.8554010218859938,28.279828224161655,30.135229246047647,493.13791133617303,569.8819595434618
1.7104000075278193E12,2.032608695652174,-6.456521739130435,2.9239130434782608,1.88424967339631,28.30745080798278,30.19170048137909,493.14937867514834,569.9220591690611
1.710400007547351E12,2.010869565217391,-6.467391304347826,2.880434782608696,1.9579579780051684,28.337525527182287,30.295483505187455,493.181977651355,569.9912238110571
1.710400007566883E12,2.010869565217391,-6.423913043478261,2.891304347826087,2.0005818606116605,28.35973898884523,30.36032084945689,493.1927958956714,570.0122112050309
1.7104000075864148E12,2.010869565217391,-6.445652173913043,2.902173913043478,2.0147898214804916,28.378995463728366,30.393785285208857,493.1651011902215,569.9692267142805
1.7104000076059465E12,1.9891304347826086,-6.423913043478261,2.934782608695652,1.956010694028222,28.35014681221805,30.306157506246272,493.1585381220029,569.8849165302416
1.7104000076254785E12,2.032608695652174,-6.445652173913043,2.902173913043478,1.8642719822254161,28.29223314431109,30.156505126536505,493.13877679571834,569.8094051849133
1.7104000076450103E12,2.0217391304347827,-6.456521739130435,2.902173913043478,1.7739035813693502,28.218452718073458,29.992356299442807,493.16221632507046,569.7674303969658
1.7104000076645422E12,2.043478260869565,-6.489130434782608,2.9130434782608696,1.7604168367882773,28.185493133722918,29.945909970511195,493.1402913499226,569.7607230854896
1.710400007684074E12,1.9891304347826086,-6.478260869565217,2.9456521739130435,1.747723430123738,28.1792906736482,29.92701410377194,493.109928144208,569.7783928845397
1.710400007703606E12,1.967391304347826,-6.554347826086956,2.8369565217391304,1.7468579705784286,28.182103417170456,29.928961387748885,493.1281027946595,569.7773110601081
1.7104000077231377E12,2.010869565217391,-6.478260869565217,3.0543478260869565,1.7513295115625278,28.175323984065532,29.92665349562806,493.123775496933,569.7828644255238
1.7104000077426697E12,2.0,-6.434782608695652,2.9239130434782608,1.7456319028892402,28.174242159633895,29.919874062523135,493.0631933287613,569.7878408179093
1.7104000077622014E12,2.0217391304347827,-6.423913043478261,2.891304347826087,1.7423864295943297,28.19212832357029,29.93451475316462,493.04516292156734,569.8087560902544
1.7104000077817334E12,1.9891304347826086,-6.456521739130435,3.0652173913043477,1.7432518891396391,28.191407107282533,29.934658996422172,493.03145981209997,569.804717279043
1.7104000078012651E12,2.032608695652174,-6.532608695652174,2.9891304347826084,1.743324010768415,28.173737308232464,29.91706131900088,493.0309549606985,569.8120015635493
1.710400007820797E12,2.0217391304347827,-6.478260869565217,2.967391304347826,1.75334891716825,28.15361537380402,29.90696429097227,493.05129326001327,569.8082512388529
1.7104000078403289E12,2.0,-6.456521739130435,2.9782608695652173,1.7473628219798591,28.15202869797095,29.89939151995081,493.0679533562605,569.813371874496
1.7104000078598608E12,1.9565217391304348,-6.434782608695652,2.9891304347826084,1.7534210387970257,28.135007993579865,29.88842903237689,493.0743721812215,569.8176991722225
1.7104000078793926E12,2.010869565217391,-6.423913043478261,3.0,1.7485888896690476,28.13767649384457,29.886265383513617,493.0458841378551,569.8076742658227
1.7104000078989246E12,2.010869565217391,-6.445652173913043,2.9891304347826084,1.7459203894043434,28.12873341187637,29.874653801280715,493.0796370601222,569.8281568083951
1.7104000079184563E12,1.9891304347826086,-6.445652173913043,2.967391304347826,1.7387803481555402,28.136234061269054,29.875014409424594,493.03153193372873,569.8132276312384
1.710400007937988E12,2.010869565217391,-6.445652173913043,3.0,1.7472185787223076,28.13046433096699,29.877682909689298,493.05994785546636,569.8128670230946
1.71040000795752E12,2.032608695652174,-6.445652173913043,2.9565217391304346,1.7390688346706433,28.12858916861882,29.867658003289463,493.0717758025856,569.8166894694197
1.7104000079770518E12,2.0217391304347827,-6.456521739130435,2.9565217391304346,1.7470022138359802,28.12599278998289,29.872995003818872,493.0799255466373,569.814670063814
1.7104000079965837E12,2.0,-6.445652173913043,2.9565217391304346,1.7447664433439307,28.127507344187183,29.872273787531114,493.0586496661484,569.8306810654022
1.7104000080161155E12,1.9891304347826086,-6.434782608695652,3.010869565217391,1.755728930917851,28.163135428802423,29.918864359720274,493.06478000459435,569.8197185778283
1.7104000080356475E12,2.0217391304347827,-6.434782608695652,3.010869565217391,1.7919339885632979,28.207922960272192,29.99985694883549,493.08482981739405,569.8105591309737
1.7104000080551792E12,2.0,-6.467391304347826,2.9565217391304346,1.799146151440877,28.197104715955824,29.9962508673967,493.1542829459051,569.8041403060128
1.7104000080747112E12,1.9782608695652173,-6.434782608695652,2.9782608695652173,1.7710187162183186,28.155923265924844,29.926941982143163,493.1112984551547,569.8094051849133
1.710400008094243E12,2.0217391304347827,-6.445652173913043,2.9456521739130435,1.7527719441380436,28.09858657104809,29.851358515186135,493.11548150962375,569.8089724551406
1.710400008113775E12,2.0,-6.467391304347826,2.9130434782608696,1.7489494978129265,28.08387375877783,29.832823256590757,493.1091348062915,569.8107033742313
1.7104000081333066E12,2.0543478260869565,-6.478260869565217,2.9456521739130435,1.7459203894043434,28.066997297644296,29.81291768704864,493.08569527693936,569.8224591997217
1.7104000081528386E12,2.0217391304347827,-6.489130434782608,2.9782608695652173,1.7640229182270668,28.000717520799345,29.76474043902641,493.0985329268614,569.9012160183449
1.7104000081723704E12,2.010869565217391,-6.5,2.9239130434782608,2.125857129795209,28.632430867246498,30.758287997041705,493.08093524944013,569.5822220542696
1.7104000081919023E12,2.0543478260869565,-6.445652173913043,3.0,2.0054140097396385,28.809056736118407,30.814470745858046,493.08446920925013,569.3985282657777
1.710400008211434E12,2.010869565217391,-6.467391304347826,2.9565217391304346,1.7581810662962278,28.014420630266745,29.772601696562973,493.0161700267995,569.7843068580994
1.7104000082309658E12,1.9891304347826086,-6.434782608695652,2.9891304347826084,1.7916455020481947,28.09123016491296,29.882875666961155,493.03795075868976,569.8590248655111
1.7104000082504978E12,2.032608695652174,-6.413043478260869,2.9565217391304346,1.803617692424976,28.086181650898656,29.88979934332363,493.04090774546955,569.869987353085
1.7104000082700295E12,2.043478260869565,-6.434782608695652,2.934782608695652,1.8072237738637655,28.09310532726113,29.900329101124896,493.04249442130265,569.8901092875135
1.7104000082895615E12,2.108695652173913,-6.4021739130434785,2.902173913043478,1.8223693159066816,28.088922272792136,29.911291588698816,493.1192318343201,569.8889553414531
1.7104000083090933E12,2.0652173913043477,-6.478260869565217,2.9891304347826084,1.8449433857135042,28.106087220440774,29.951030606154276,493.1117311849274,569.9129718438354
1.7104000083286252E12,2.0217391304347827,-6.608695652173913,3.043478260869565,1.8625410631347972,28.11560727543918,29.978148338573977,493.12016941549416,569.9343919675817
1.710400008348157E12,2.0,-6.565217391304348,2.9456521739130435,1.898457634265141,28.1200066947945,30.018464329059643,493.1067547925419,569.9692267142805
1.710400008367689E12,1.9782608695652173,-6.445652173913043,2.9239130434782608,1.9355281514558973,28.13320495286047,30.06873310431637,493.11396695541947,570.0093984615086
1.7104000083872207E12,2.0,-6.4021739130434785,2.934782608695652,1.992215751673669,28.142220156457444,30.134435908131113,493.0979559538312,570.0366604371859
1.7104000084067527E12,2.043478260869565,-6.445652173913043,2.967391304347826,2.0472445544295974,28.173160335202258,30.220404889631855,493.07228065398704,570.0603884530531
1.7104000084262844E12,2.032608695652174,-6.434782608695652,3.010869565217391,2.0618852450710827,28.17972340342086,30.24160864849194,493.0745164244791,570.0268518956724
1.7104000084458164E12,2.032608695652174,-6.434782608695652,2.9782608695652173,1.9538470451649483,28.14813413001706,30.101981175182008,493.08425284436385,569.9165779252742
1.7104000084653481E12,2.0543478260869565,-6.445652173913043,2.9565217391304346,1.8599446844988687,28.11856426221899,29.978508946717856,493.1081251034886,569.8521011891486
1.7104000084848801E12,2.043478260869565,-6.467391304347826,3.043478260869565,1.7906357992453337,28.051923877230156,29.84255967647549,493.1030765894743,569.8140930907838
1.7104000085044119E12,2.0543478260869565,-6.510869565217391,2.9891304347826084,1.7762114734901755,28.04312503851951,29.819336512009684,493.0760309786834,569.8026978734372
1.7104000085239438E12,2.0,-6.478260869565217,3.0,1.7766442032628302,28.03028738859742,29.80693159186025,493.0813679792128,569.7962069268474
1.7104000085434756E12,2.032608695652174,-6.456521739130435,3.0543478260869565,1.770225378301785,28.053943282835878,29.824168661137662,493.10127354875493,569.7978657243092
1.7104000085630073E12,2.0652173913043477,-6.4021739130434785,2.9239130434782608,1.7617871477350173,28.026537063901078,29.788324211636095,493.10740388720086,569.8076742658227
1.7104000085825393E12,2.0543478260869565,-6.391304347826087,3.032608695652174,1.771235081104646,28.04362988992094,29.814864971025585,493.0689630590634,569.8070972927925
1.710400008602071E12,2.0,-6.445652173913043,3.1956521739130435,1.7723169055362828,28.039374713823168,29.81169161935945,493.09932626477797,569.8044287925278
1.710400008621603E12,2.0760869565217392,-6.543478260869565,3.0217391304347827,1.7869575961777684,28.030864361627625,29.817821957805393,493.10264385970163,569.8123621716932
1.7104000086411348E12,2.043478260869565,-6.467391304347826,3.0869565217391304,1.7785914872397766,28.00901150810856,29.787602995348337,493.1188712261762,569.7993802785135
1.7104000086606667E12,2.0543478260869565,-6.413043478260869,3.0760869565217392,1.7726775136801618,27.99718356098933,29.769861074669492,493.10286022458797,569.7874080881368
1.7104000086801985E12,2.0543478260869565,-6.391304347826087,3.043478260869565,1.770585986445664,27.97987437008314,29.750460356528805,493.016314270057,569.7713970865485
1.7104000086997305E12,2.0543478260869565,-6.3478260869565215,3.0652173913043477,1.7648883777723765,27.989105938566443,29.75399431633882,493.02078581104115,569.7636079506407
1.7104000087192622E12,2.0652173913043477,-6.33695652173913,3.0760869565217392,1.7660423238327891,27.996967196103004,29.763009519935792,492.97123825207217,569.7557466931041
1.7104000087387942E12,2.0543478260869565,-6.358695652173913,3.0543478260869565,1.7562337823192815,28.055313593782618,29.8115473761019,492.97217583324624,569.7576218554523
1.710400008758326E12,2.043478260869565,-6.33695652173913,2.934782608695652,1.7927994481086074,28.098514449419316,29.891313897527922,492.9634491161644,569.7408896375763
1.710400008777858E12,2.0652173913043477,-6.282608695652174,2.9565217391304346,1.8067910440911108,28.09620655729849,29.9029976013896,493.0354265016826,569.7302877581463
1.7104000087973896E12,2.0543478260869565,-6.326086956521739,2.934782608695652,1.7628689721666542,28.035191659354172,29.798060631520826,493.03081071744094,569.7401684212886
1.7104000088169216E12,2.0217391304347827,-6.391304347826087,3.0760869565217392,1.7520507278502857,27.997760534019537,29.749811261869823,493.0362919612279,569.7273307713665
1.7104000088364534E12,2.0217391304347827,-6.413043478260869,2.967391304347826,1.740871875390038,28.000356912655466,29.741228788045504,492.97902738797995,569.7273307713665
1.7104000088559854E12,2.043478260869565,-6.434782608695652,3.0217391304347827,1.7362560911483875,28.00728058901794,29.74353668016633,492.968713995065,569.7367787047361
1.710400008875517E12,2.0543478260869565,-6.467391304347826,3.0217391304347827,1.743612497283518,27.930398932742946,29.674011430026464,493.01148212092903,569.7899323451438
1.7104000088950488E12,2.0217391304347827,-6.5,3.0978260869565215,2.048110013974907,28.43445699625695,30.482567010231858,492.98941290252367,569.6379720733133
1.7104000089145808E12,2.0652173913043477,-6.5,3.0978260869565215,2.042556648559171,28.916806449509437,30.959363098068607,493.00556814736944,569.2847924571983
1.7104000089341125E12,2.032608695652174,-6.478260869565217,3.032608695652174,1.7383476183828854,27.92535041872864,29.663698037111526,493.0516538681572,569.6613394810366
1.7104000089536445E12,1.9891304347826086,-6.434782608695652,3.0652173913043477,1.7860200150036831,28.036345605414585,29.822365620418267,493.019848229867,569.7598576259444
1.7104000089731763E12,2.0543478260869565,-6.423913043478261,3.0760869565217392,1.7813321091332568,28.054448134237308,29.835780243370564,493.033695582592,569.7739213435557
1.7104000089927083E12,2.0543478260869565,-6.4021739130434785,3.010869565217391,1.7938091509114684,28.056179053327927,29.849988204239395,493.0396816777804,569.7933941833251
1.71040000901224E12,2.0869565217391304,-6.4021739130434785,3.032608695652174,1.8041225438264066,28.064400919008367,29.868523462834773,493.03088283906976,569.8036354546113
1.710400009031772E12,1.9891304347826086,-6.413043478260869,3.141304347826087,1.8144359367413447,28.092744719117253,29.907180655858596,493.0083087692629,569.8090445767695
1.7104000090513037E12,1.9891304347826086,-6.489130434782608,3.0,1.8435009531379885,28.094908367980526,29.938409321118513,492.9997262954386,569.8167615910485
1.7104000090708357E12,2.0217391304347827,-6.489130434782608,3.0652173913043477,1.8675895771491025,28.128733411876375,29.996322989025476,493.0367246910006,569.863857014639
1.7104000090903674E12,2.0,-6.456521739130435,3.0217391304347827,1.913242568164178,28.135368601723744,30.048611169887923,493.0396095561516,569.8963117475881
1.7104000091098994E12,2.0,-6.423913043478261,2.967391304347826,1.9861575348565026,28.163784523461405,30.149942058317908,493.0384556100912,569.958769078108
1.7104000091294312E12,1.9782608695652173,-6.434782608695652,3.032608695652174,2.020487430153779,28.18715193118476,30.20763936133854,493.01919913520805,569.9708855117424
1.7104000091489631E12,1.967391304347826,-6.423913043478261,3.032608695652174,2.027411106516255,28.20864417655995,30.236055283076205,493.0354265016826,569.9389356301947
1.7104000091684949E12,1.9891304347826086,-6.456521739130435,3.032608695652174,1.900116431726984,28.19934048644787,30.099456918174855,493.04898536789244,569.8327004710079
1.7104000091880266E12,2.0,-6.489130434782608,3.0,1.8151571530291026,28.153687495432795,29.968844648461896,493.02460825736625,569.7548091119301
1.7104000092075586E12,2.010869565217391,-6.456521739130435,2.9565217391304346,1.7565943904631605,28.096422922184818,29.853017312647978,493.0130687967621,569.717522229853
1.7104000092270903E12,2.010869565217391,-6.434782608695652,3.0,1.741593091677796,28.08985985396622,29.831452945644017,492.99604809237104,569.7160797972774
1.7104000092466223E12,1.9782608695652173,-6.478260869565217,3.032608695652174,1.7430355242533118,28.086830745557638,29.82986626981095,493.02605068994177,569.7140603916718
1.710400009266154E12,2.032608695652174,-6.489130434782608,3.0217391304347827,1.7423864295943297,28.074065217264323,29.816451646858653,493.016314270057,569.7131228104977
1.710400009285686E12,1.9782608695652173,-6.456521739130435,3.043478260869565,1.7376985237239033,28.08610952926988,29.823808052993783,493.03030586603955,569.7135555402704
1.7104000093052178E12,2.0,-6.413043478260869,2.8260869565217392,1.7524834576229404,28.075074920067184,29.827558377690124,493.0351380151675,569.7245180278443
1.7104000093247498E12,1.9456521739130435,-6.4021739130434785,3.0978260869565215,1.7397900509584012,28.098225962904213,29.838016013862614,492.98522984805464,569.7201186084889
1.7104000093442815E12,1.9891304347826086,-6.478260869565217,3.0869565217391304,1.7423864295943297,28.099091422449522,29.84147785204385,492.9266670854887,569.7324514070095
1.7104000093638135E12,2.0,-6.467391304347826,3.010869565217391,1.7506804169035457,28.092384110973374,29.84306452787692,492.9270998152614,569.7267537983363
1.7104000093833452E12,1.9782608695652173,-6.456521739130435,3.0543478260869565,1.7508246601610973,28.090292583738876,29.841117243899973,492.94808720923515,569.716873135194
1.7104000094028772E12,1.967391304347826,-6.467391304347826,2.9891304347826084,1.7400785374735044,28.081205258513126,29.82128379598663,492.8835383514808,569.7196137570875
1.710400009422409E12,1.967391304347826,-6.434782608695652,2.967391304347826,1.7410882402763654,28.086902867186414,29.82799110746278,492.9032275561366,569.7161519189062
1.710400009441941E12,1.9565217391304348,-6.456521739130435,2.9565217391304346,1.7265917928924315,28.08661438067131,29.813206173563742,492.8892359601541,569.7315859474643
1.7104000094614727E12,1.967391304347826,-6.467391304347826,2.9891304347826084,1.7327942529671494,28.094764124722975,29.827558377690124,492.9454187089704,569.7276913795104
1.7104000094810046E12,1.9891304347826086,-6.467391304347826,2.9891304347826084,1.7511852683049762,28.142075913199893,29.89326118150487,492.9363313837447,569.7242295413291
1.7104000095005364E12,2.0,-6.434782608695652,2.967391304347826,1.7842890959130642,28.165154834408145,29.94944393032121,492.94888054715165,569.7139161484142
1.710400009520068E12,1.9891304347826086,-6.445652173913043,3.0,1.784721825685719,28.15924086084853,29.94396268653425,492.96085273752846,569.7144209998156
1.7104000095396E12,1.9782608695652173,-6.413043478260869,2.967391304347826,1.7405112672461591,28.10651995021343,29.847031217459588,492.97332977930665,569.7227149871248
1.7104000095591318E12,1.9782608695652173,-6.434782608695652,2.9891304347826084,1.7397900509584012,28.058775431963856,29.798565482922257,492.9816237666159,569.7263210685636
1.7104000095786638E12,2.0217391304347827,-6.456521739130435,2.934782608695652,1.733587590883683,28.05560208029772,29.789189671181404,492.9563811965443,569.7431254080684
1.7104000095981956E12,2.010869565217391,-6.478260869565217,2.967391304347826,1.7300536310736694,28.042475943860527,29.772529574934197,492.9707334006707,569.7322350421232
1.7104000096177275E12,2.0,-6.510869565217391,2.934782608695652,1.7971988674639308,28.07875312313475,29.87595199059868,492.96777641389093,569.8593854736549
1.7104000096372593E12,2.010869565217391,-6.5,2.934782608695652,2.1311220086958422,28.593340944450016,30.72446295314586,492.94419264128123,569.4591104339494
1.7104000096567913E12,2.0217391304347827,-6.467391304347826,2.967391304347826,1.8538864676817022,28.159601468992413,30.013487936674114,492.9747000902534,569.4515376629279
1.710400009676323E12,2.0217391304347827,-6.391304347826087,2.9239130434782608,1.7517622413351825,27.988168357392357,29.73993059872754,492.9197434091262,569.714637364702
1.710400009695855E12,1.9782608695652173,-6.434782608695652,3.0217391304347827,1.7720284190211797,28.083296785747624,29.855325204768803,493.00542390411186,569.825271943244
1.7104000097153867E12,2.032608695652174,-6.423913043478261,2.902173913043478,1.7942418806841232,28.07255066306003,29.866792543744154,493.1464938099973,569.8377489850222
1.7104000097349187E12,2.0652173913043477,-6.380434782608695,2.902173913043478,1.7992903946984287,28.091374408170513,29.89066480286894,493.1400028634075,569.8448890262711
1.7104000097544504E12,2.032608695652174,-6.423913043478261,2.880434782608696,1.8110462201888824,28.10017324688116,29.91121946707004,493.107043279057,569.8678237042217
1.7104000097739824E12,2.043478260869565,-6.467391304347826,2.9239130434782608,1.8222971942779058,28.109332693735684,29.93162988801359,493.10127354875493,569.9033796672082
1.7104000097935142E12,2.0217391304347827,-6.532608695652174,2.9891304347826084,1.8519391837047559,28.133998290777008,29.985937474481762,493.08540679042426,569.9385750220508
1.7104000098130461E12,2.032608695652174,-6.554347826086956,2.9456521739130435,1.872205361390753,28.162702699029772,30.034908060420523,493.11245240121514,569.9631684974634
1.710400009832578E12,2.0652173913043477,-6.489130434782608,2.9239130434782608,1.9323547997897625,28.186214350010676,30.11856914980044,493.10055233246715,570.0403386402534
1.7104000098521096E12,2.0652173913043477,-6.467391304347826,2.902173913043478,1.976998088001977,28.21751513689937,30.194513224901346,493.0799255466373,570.0705576027104
1.7104000098716416E12,2.043478260869565,-6.456521739130435,2.902173913043478,2.0220019843580705,28.2314346112531,30.25343659561117,493.11216391470003,570.0714230622558
1.7104000098911733E12,2.0543478260869565,-6.413043478260869,2.891304347826087,2.0016636850432974,28.247806220985204,30.2494699060285,493.0950710886802,570.0006717444268
1.7104000099107053E12,2.0652173913043477,-6.445652173913043,2.891304347826087,1.913603176308057,28.19970109459175,30.113304270899807,493.0846855741365,569.9248719125834
1.710400009930237E12,2.032608695652174,-6.445652173913043,2.9130434782608696,1.7987134216682223,28.130175844451887,29.92888926612011,493.0825219252732,569.8469805535055
1.710400009949769E12,2.043478260869565,-6.467391304347826,2.9130434782608696,1.7708023513319913,28.09808171964666,29.868884070978652,493.0720642891007,569.8297434842281
1.7104000099693008E12,2.043478260869565,-6.456521739130435,2.880434782608696,1.7595513772429678,28.097648989874006,29.857200367116974,493.0956480617104,569.8257767946454
1.7104000099888328E12,2.0652173913043477,-6.467391304347826,2.8478260869565215,1.7568107553494878,28.0926004758597,29.84941123120919,493.10581721136776,569.8274355921072
1.7104000100083645E12,2.0760869565217392,-6.489130434782608,2.8478260869565215,1.748444646411496,28.103346598547294,29.85179124495879,493.12983371375014,569.8337822954395
1.7104000100278965E12,2.0543478260869565,-6.456521739130435,2.9239130434782608,1.750247687130891,28.107818139531393,29.858065826662283,493.10271598133045,569.827219227221
1.7104000100474282E12,2.0543478260869565,-6.423913043478261,2.858695652173913,1.7554404444027478,28.109981788394666,29.865422232797414,493.1143996851921,569.8206561590024
1.7104000100669602E12,2.032608695652174,-6.445652173913043,2.858695652173913,1.7607053233033805,28.12022305968083,29.88092838298421,493.1256506592811,569.833638052182
1.710400010086492E12,2.043478260869565,-6.467391304347826,2.891304347826087,1.7558731741754026,28.122530951801654,29.878404125977056,493.1324300923861,569.8249834567289
1.710400010106024E12,2.0543478260869565,-6.478260869565217,2.9239130434782608,1.7668356617493228,28.123180046460636,29.89001570820996,493.09968687292184,569.8300319707432
1.7104000101255557E12,2.0652173913043477,-6.489130434782608,2.9239130434782608,1.7607774449321563,28.124694600664927,29.885472045597083,493.10322083273184,569.8402732420294
1.7104000101450874E12,2.0652173913043477,-6.489130434782608,2.902173913043478,1.7625083640227752,28.117338194529797,29.879846558552572,493.09687412939957,569.8383259580525
1.7104000101646194E12,2.043478260869565,-6.467391304347826,2.880434782608696,1.7643835263709458,28.11337150494713,29.877755031318074,493.1084857116325,569.8370998903632
1.7104000101841511E12,2.043478260869565,-6.434782608695652,2.880434782608696,1.7517622413351825,28.11387635634856,29.86563859768374,493.11367846890437,569.8486393509673
1.710400010203683E12,2.010869565217391,-6.456521739130435,2.880434782608696,1.7560174174329541,28.106952679986083,29.862970097419037,493.1259391457962,569.8510914863457
1.7104000102232148E12,2.032608695652174,-6.467391304347826,2.9130434782608696,1.750896781789873,28.108972085591805,29.859868867381678,493.1200972938654,569.8489278374825
1.7104000102427468E12,2.0217391304347827,-6.478260869565217,2.891304347826087,1.7495985924719089,28.109332693735684,29.858931286207593,493.09716261591467,569.8526781621788
1.7104000102622786E12,2.0217391304347827,-6.5,2.9239130434782608,1.763590188454412,28.100533855025038,29.86412404347945,493.1328628221587,569.8508751214595
1.7104000102818105E12,2.0543478260869565,-6.532608695652174,2.934782608695652,1.7556568092890752,28.107818139531393,29.863474948820468,493.1463495667398,569.8608279062305
1.7104000103013423E12,2.032608695652174,-6.489130434782608,2.9239130434782608,1.7580368230386763,28.16407300997651,29.922109833015185,493.1275258216293,569.8402732420294
1.7104000103208743E12,2.0217391304347827,-6.489130434782608,2.9130434782608696,1.7827024200799968,28.18304099834454,29.965743418424537,493.1388489173471,569.8482787428235
1.710400010340406E12,2.0217391304347827,-6.5,2.9130434782608696,1.803978300568855,28.196239256410514,30.00021755697937,493.0931238047032,569.8412829448322
1.710400010359938E12,2.0217391304347827,-6.467391304347826,2.934782608695652,1.7710187162183186,28.143085616002754,29.914104332221072,493.1171403070856,569.8473411616494
1.7104000103794697E12,2.0217391304347827,-6.467391304347826,2.9782608695652173,1.7389245914130917,28.10132719294157,29.840251784354663,493.09348441284715,569.8610442711168
1.7104000103990017E12,2.0543478260869565,-6.478260869565217,2.891304347826087,1.743612497283518,28.072983392832686,29.816595890116204,493.12117911829705,569.8629915550938
1.7104000104185334E12,2.0652173913043477,-6.434782608695652,2.967391304347826,1.7509689034186489,28.064905770409798,29.815874673828446,493.0953595751953,569.8652994472146
1.7104000104380654E12,2.032608695652174,-6.478260869565217,2.9565217391304346,1.7405112672461591,28.01982975242493,29.76034101967109,493.105745089739,569.9262422235302
1.7104000104575972E12,2.0217391304347827,-6.467391304347826,2.934782608695652,2.1316268600972728,28.604519796910264,30.736146657007538,493.090311061181,569.5667159040828
1.710400010477129E12,2.043478260869565,-6.456521739130435,3.0,2.123477116045608,28.803575492331447,30.927052608377053,493.10213900830024,569.4185059569486
1.710400010496661E12,2.043478260869565,-6.434782608695652,2.9130434782608696,1.7575319716372457,27.95758878679142,29.715120758428665,493.1215397264409,569.6986984847425
1.7104000105161926E12,1.9565217391304348,-6.445652173913043,2.967391304347826,1.7829187849663242,28.123324289718187,29.90624307468451,493.12110699666823,569.8903977740285
1.7104000105357246E12,2.0869565217391304,-6.456521739130435,2.8369565217391304,1.7894097315561452,28.124261870892273,29.913671602448417,493.1362525387112,569.9051827079276
1.7104000105552563E12,1.9782608695652173,-6.369565217391304,2.9239130434782608,1.805709219659474,28.12548793858146,29.931197158240934,493.160124797836,569.9289107237948
1.7104000105747883E12,2.0760869565217392,-6.380434782608695,2.934782608695652,1.8134262339384837,28.1405613589956,29.953987592934084,493.13192524098463,569.9271798047042
1.71040001059432E12,2.043478260869565,-6.489130434782608,2.934782608695652,1.8260475189742469,28.160394806908947,29.986442325883193,493.1173566719719,569.9511241854577
1.710400010613852E12,1.9891304347826086,-6.565217391304348,3.010869565217391,1.8432124666228853,28.175323984065535,30.01853645068842,493.1335840384465,569.9556678480707
1.7104000106333838E12,2.010869565217391,-6.510869565217391,2.934782608695652,1.8594398330974382,28.186142228381904,30.04558206147934,493.1416616608694,569.9835789184069
1.7104000106529158E12,2.010869565217391,-6.423913043478261,2.9239130434782608,1.9130983249066265,28.223068502315105,30.136166827221732,493.15832175711654,570.0471180733583
1.7104000106724475E12,2.010869565217391,-6.445652173913043,2.9130434782608696,1.9578858563763926,28.258552343672793,30.216438200049186,493.19935896389,570.078779468391
1.7104000106919795E12,2.0,-6.4021739130434785,2.891304347826087,2.0243819981076716,28.296560442037638,30.32094244014531,493.17469336684866,570.1062578089545
1.7104000107115112E12,1.9891304347826086,-6.413043478260869,2.934782608695652,2.022146227615622,28.33831886509882,30.360465092714442,493.12355913204664,570.0506520331684
1.7104000107310432E12,1.9891304347826086,-6.456521739130435,2.9782608695652173,1.927739015548112,28.28155914325227,30.209298158800383,493.12254942924375,569.9376374408766
1.710400010750575E12,2.010869565217391,-6.5,2.902173913043478,1.846025210145141,28.234968571063114,30.080993781208253,493.1138227121619,569.8700594747138
1.710400010770107E12,2.010869565217391,-6.445652173913043,2.934782608695652,1.8023916247357876,28.166236658839782,29.96862828357557,493.1374064847716,569.8381095931661
1.7104000107896387E12,2.0,-6.467391304347826,2.934782608695652,1.759479255614192,28.15736569850036,29.916844954114552,493.1155536312525,569.8169779559348
1.7104000108091704E12,2.010869565217391,-6.489130434782608,3.032608695652174,1.7621477558788963,28.14604260278256,29.908190358661457,493.1182221315172,569.8141652124125
1.7104000108287024E12,2.0217391304347827,-6.565217391304348,2.9456521739130435,1.7697926485291302,28.123901262748394,29.893693911277524,493.1126687661015,569.8125785365795
1.7104000108482341E12,2.0,-6.4021739130434785,2.9565217391304346,1.7642392831133942,28.129382506535354,29.893621789648748,493.1246409564783,569.804356670899
1.710400010867766E12,1.967391304347826,-6.358695652173913,2.9565217391304346,1.769215675498924,28.131041303997197,29.90025697949612,493.1071875223145,569.8148864287003
1.7104000108872979E12,2.032608695652174,-6.445652173913043,2.9782608695652173,1.7674126347795291,28.13868619664743,29.90609883142696,493.1304828084091,569.8148143070715
1.7104000109068298E12,1.9891304347826086,-6.478260869565217,3.141304347826087,1.7775817844369155,28.138253466874776,29.91583525131169,493.13452161962056,569.8045730357853
1.7104000109263616E12,2.032608695652174,-6.543478260869565,2.9239130434782608,1.7651047426587039,28.144095318805615,29.90920006146432,493.13481010613566,569.7973608729078
1.7104000109458936E12,1.9891304347826086,-6.478260869565217,2.934782608695652,1.7687108240974934,28.148422616532162,29.917133440629655,493.1381277010593,569.7943317644992
1.7104000109654253E12,1.9891304347826086,-6.445652173913043,3.010869565217391,1.7821975686785663,28.111856950742837,29.894054519421402,493.08987833140833,569.7995245217711
1.7104000109849573E12,2.0,-6.445652173913043,3.032608695652174,1.7710908378470944,28.10442842297893,29.875519260826024,493.14858533723185,569.7900765884015
1.710400011004489E12,2.0,-6.423913043478261,3.0652173913043477,1.7696484052715786,28.106736315099756,29.876384720371334,493.1362525387112,569.7813498713195
1.710400011024021E12,2.010869565217391,-6.467391304347826,3.010869565217391,1.7739035813693502,28.095773827525836,29.869677408895186,493.14858533723185,569.7750031679873
1.7104000110435527E12,1.9782608695652173,-6.456521739130435,3.010869565217391,1.7783751223534492,28.13803710198845,29.916412224341897,493.1344494979918,569.7687285862838
1.7104000110630847E12,2.010869565217391,-6.445652173913043,3.032608695652174,1.7745526760283323,28.147989886759508,29.92254256278784,493.15781690571515,569.781205628062
1.7104000110826165E12,2.010869565217391,-6.456521739130435,3.043478260869565,1.815734126059309,28.183040998344545,29.998775124403853,493.1543550675339,569.7517800035215
1.7104000111021482E12,2.010869565217391,-6.467391304347826,3.0217391304347827,1.790852164131661,28.15325476566014,29.9441069297918,493.16048540597984,569.7672140320796
1.7104000111216802E12,2.0,-6.445652173913043,3.043478260869565,1.762219877507672,28.11301089680325,29.87523077431092,493.1772176238558,569.7548091119301
1.710400011141212E12,1.967391304347826,-6.423913043478261,3.010869565217391,1.7528440657668194,28.057982094047322,29.81082615981414,493.1432483367024,569.7685122213975
1.710400011160744E12,2.0217391304347827,-6.4021739130434785,3.0543478260869565,1.7571713634933668,28.065626986697556,29.822798350190922,493.1351707142795,569.7451448136741
1.7104000111802756E12,2.0217391304347827,-6.413043478260869,3.043478260869565,1.7537816469409047,28.0285564695068,29.782338116447704,493.1368295117414,569.7761571140477
1.7104000111998076E12,2.010869565217391,-6.467391304347826,3.0652173913043477,1.81948445075565,28.08214283968721,29.90162729044286,493.1412289310967,569.867102487934
1.7104000112193394E12,1.967391304347826,-6.467391304347826,3.0652173913043477,2.100109708322252,28.64231153038878,30.74242123871103,493.13156463284076,569.5392375635192
1.7104000112388713E12,2.0543478260869565,-6.467391304347826,3.108695652173913,1.7951794618582084,28.202081108341353,29.99726057019956,493.1349543493932,569.4447582298229
1.710400011258403E12,1.9456521739130435,-6.4021739130434785,3.0543478260869565,1.7537095253121289,28.00014054776914,29.753850073081267,493.1249294429934,569.7084349046272
1.710400011277935E12,2.032608695652174,-6.380434782608695,3.119565217391304,1.79532370511576,28.112938775174474,29.908262480290233,493.1085578332613,569.7806286550318
1.7104000112974668E12,2.0217391304347827,-6.391304347826087,3.119565217391304,1.8025358679933392,28.07788766358944,29.880423531582778,493.0944219940212,569.7922402372647
1.7104000113169988E12,2.0760869565217392,-6.358695652173913,2.967391304347826,1.8098922741284698,28.11798728918878,29.927879563317248,493.10891844140514,569.8073136576788
1.7104000113365305E12,2.0217391304347827,-6.326086956521739,3.119565217391304,1.8137147204535868,28.132916466345367,29.946631186798953,493.1406519580665,569.8116409554054
1.7104000113560625E12,2.0,-6.423913043478261,3.141304347826087,1.8287160192389513,28.14041711573805,29.969133134977,493.1101445090943,569.8274355921072
1.7104000113755942E12,2.0217391304347827,-6.434782608695652,3.0543478260869565,1.8574204274917159,28.15808691478812,30.015507342279836,493.1165633340554,569.8412108232035
1.7104000113951262E12,1.9891304347826086,-6.369565217391304,3.0760869565217392,1.88150905150283,28.180084011564734,30.061593063067566,493.1281027946595,569.8536157433529
1.710400011414658E12,2.032608695652174,-6.304347826086956,2.9891304347826084,1.9524046125894325,28.201287770424816,30.15369238301425,493.1088463197764,569.916000952244
1.7104000114341897E12,2.0543478260869565,-6.315217391304348,3.010869565217391,1.990845440726929,28.224294570004293,30.215140010731222,493.13279070052994,569.93980108974
1.7104000114537217E12,2.0543478260869565,-6.358695652173913,3.0869565217391304,2.034911755908937,28.267783912156098,30.302695668065034,493.12882401094726,569.931434980802
1.7104000114732534E12,2.0543478260869565,-6.434782608695652,3.0543478260869565,1.996975779172871,28.256893546210954,30.253869325383825,493.12031365875174,569.8784977052806
1.7104000114927854E12,2.0543478260869565,-6.445652173913043,2.9891304347826084,1.8660750229448109,28.198619270160115,30.064694293104925,493.1051681167088,569.7701710188593
1.7104000115123171E12,2.0760869565217392,-6.445652173913043,3.010869565217391,1.7977037188653613,28.168544550960608,29.966248269825968,493.08735407440116,569.7338217179563
1.710400011531849E12,2.0543478260869565,-6.478260869565217,3.1304347826086953,1.763590188454412,28.14690806232787,29.910498250782283,493.13012220026525,569.7004294038331
1.7104000115513809E12,2.043478260869565,-6.510869565217391,3.108695652173913,1.7627247289091026,28.135873453125175,29.898598182034277,493.1618557169266,569.7016554715223
1.7104000115709128E12,2.0869565217391304,-6.489130434782608,2.967391304347826,1.7466416056921013,28.142941372745202,29.889582978437303,493.1527683917008,569.7098773372028
1.7104000115904446E12,2.032608695652174,-6.3478260869565215,3.1304347826086953,1.7511852683049762,28.14142681854091,29.892612086845887,493.17115940703866,569.6984099982274
1.7104000116099766E12,2.0652173913043477,-6.369565217391304,2.9239130434782608,1.747434943608635,28.14452804857827,29.891962992186905,493.1585381220029,569.7046845799309
1.7104000116295083E12,2.043478260869565,-6.413043478260869,3.119565217391304,1.7516901197064068,28.14330198088908,29.894992100595488,493.1726018396142,569.7214167978069
1.7104000116490403E12,2.0,-6.489130434782608,3.1739130434782608,1.7524113359941647,28.155418414523414,29.90782975051758,493.17498185336376,569.7173779865955
1.710400011668572E12,2.0760869565217392,-6.489130434782608,3.0,1.7524113359941647,28.162125725999562,29.914537061993727,493.14887382374695,569.7165125270501
1.710400011688104E12,2.032608695652174,-6.445652173913043,3.1304347826086953,1.7593350123566405,28.145105021608476,29.904440033965116,493.17555882639397,569.7139161484142
1.7104000117076357E12,2.032608695652174,-6.510869565217391,3.032608695652174,1.7491658626992541,28.151091116796866,29.90025697949612,493.16971697446314,569.708507026256
1.7104000117271677E12,2.043478260869565,-6.467391304347826,3.0543478260869565,1.7519064845927341,28.135368601723744,29.887275086316478,493.166543622797,569.7123294725811
1.7104000117466995E12,2.010869565217391,-6.413043478260869,3.0760869565217392,1.754358619971111,28.120150938052053,29.874509558023163,493.18543948953624,569.7175943514818
1.7104000117662312E12,2.0217391304347827,-6.423913043478261,3.032608695652174,1.752988309024371,28.12260307343043,29.8755913824548,493.1912813414671,569.7304320014039
1.7104000117857632E12,2.0,-6.423913043478261,3.0,1.7477955517525139,28.1655875641808,29.913383115933314,493.1879637465434,569.7339659612138
1.710400011805295E12,2.010869565217391,-6.423913043478261,3.032608695652174,1.7855872852310284,28.197393202470927,29.982980487701955,493.1183663747748,569.7405290294324
1.710400011824827E12,2.032608695652174,-6.467391304347826,3.032608695652174,1.8072958954925413,28.20042231087951,30.00771820637205,493.1582496354878,569.7416108538641
1.7104000118443586E12,1.9782608695652173,-6.467391304347826,3.043478260869565,1.7742641895132292,28.169626375392244,29.943890564905473,493.1558696217382,569.7455775434468
1.7104000118638906E12,1.967391304347826,-6.467391304347826,2.9782608695652173,1.7405112672461591,28.090508948625203,29.831020215871362,493.16120662226757,569.7685122213975
1.7104000118834224E12,1.9891304347826086,-6.456521739130435,2.9782608695652173,1.7428912809957602,28.067357905788175,29.810249186783935,493.1191597126913,569.7672861537083
1.7104000119029543E12,2.032608695652174,-6.467391304347826,3.010869565217391,1.7462809975482223,28.049327498594227,29.79560849614245,493.14158953924056,569.7825759390088
1.710400011922486E12,2.043478260869565,-6.467391304347826,3.0543478260869565,1.7356791181181812,27.99977993962526,29.73545905774344,493.1519029321555,569.8347198766137
1.710400011942018E12,2.043478260869565,-6.467391304347826,2.9891304347826084,2.028637174205443,28.39500646531659,30.423643639522034,493.1198088073503,569.7173779865955
1.7104000119615498E12,2.0217391304347827,-6.467391304347826,2.967391304347826,2.1563645787673686,28.953876966700193,31.110241545467563,493.1156257528813,569.3460958416576
1.7104000119810818E12,2.010869565217391,-6.456521739130435,2.9782608695652173,1.7761393518613997,27.962565179176952,29.73870453103835,493.1159142393964,569.5636867956742
1.7104000120006135E12,1.9891304347826086,-6.4021739130434785,3.0543478260869565,1.7903473127302305,28.034326199808863,29.824673512539093,493.1093511711778,569.8433744720668
1.7104000120201455E12,1.9891304347826086,-6.456521739130435,2.9891304347826084,1.78025028470162,28.044423227837473,29.824673512539093,492.9839316587367,569.8686170421382
1.7104000120396772E12,2.0,-6.391304347826087,2.9130434782608696,1.7887606368971631,28.038869862421738,29.8276304993189,493.09261895330184,569.902802694178
1.710400012059209E12,2.0543478260869565,-6.380434782608695,2.9782608695652173,1.814363815112569,28.027258280188835,29.841622095301403,493.1257227809099,569.8998457073982
1.710400012078741E12,2.010869565217391,-6.456521739130435,2.9456521739130435,1.8233068970807669,28.038220767762756,29.86152766484352,493.12291003738767,569.9441283874665
1.7104000120982727E12,1.9891304347826086,-6.489130434782608,3.032608695652174,1.8317451276475345,28.053005701661792,29.884750829309326,493.09615291311184,569.9664139707583
1.7104000121178047E12,2.0,-6.521739130434782,3.010869565217391,1.8562664814313032,28.066853054386744,29.923119535818046,493.1077644953447,569.9972820278742
1.7104000121373364E12,2.0217391304347827,-6.489130434782608,2.9565217391304346,1.897736417977383,28.086037407641104,29.98377382561849,493.11216391470003,570.0567823716143
1.7104000121568684E12,2.0217391304347827,-6.413043478260869,2.9456521739130435,1.9300469076689373,28.10428417972138,30.034331087390317,493.1151209014799,570.1022911193718
1.7104000121764001E12,2.0217391304347827,-6.434782608695652,2.9239130434782608,2.0101019156100652,28.1200066947945,30.130108610404566,493.06773699137415,570.1448428803495
1.7104000121959321E12,2.032608695652174,-6.445652173913043,2.9130434782608696,2.0193334840933663,28.131906763542506,30.151240247635872,493.0996147512931,570.1265961082693
1.7104000122154639E12,2.032608695652174,-6.445652173913043,2.9456521739130435,1.915622581913779,28.096783530328697,30.012406112242477,493.0949989670514,570.0275731119601
1.7104000122349958E12,2.0,-6.467391304347826,2.9239130434782608,1.835711817230203,28.039735321967047,29.87544713919725,493.0924025884155,569.9646830516676
1.7104000122545276E12,2.0,-6.445652173913043,2.9456521739130435,1.7710187162183186,27.964584584782674,29.735603301000992,493.1037256841333,569.9311464942868
1.7104000122740596E12,2.0,-6.489130434782608,2.9891304347826084,1.7550798362588689,27.94864570482322,29.70372554108209,493.12197245621354,569.9320840754609
1.7104000122935913E12,2.0,-6.510869565217391,2.9456521739130435,1.76157078284869,27.93566381164358,29.69723459449227,493.11728455034313,569.9299204265977
1.7104000123131233E12,2.0217391304347827,-6.489130434782608,2.869565217391304,1.747074335464756,27.927658310849466,29.674732646314222,493.116996063828,569.9429023197773
1.710400012332655E12,2.032608695652174,-6.445652173913043,3.010869565217391,1.7454155380029128,27.92333101312292,29.66874655112583,493.09910989989163,569.9500423610261
1.710400012352187E12,2.0543478260869565,-6.423913043478261,2.880434782608696,1.747434943608635,27.925999513387623,29.673434456996258,493.1168518205705,569.9782419178774
1.7104000123717188E12,1.9782608695652173,-6.4021739130434785,2.9456521739130435,1.7428912809957602,27.938620798423386,29.681512079419146,493.0947104805363,569.979684350453
1.7104000123912505E12,2.032608695652174,-6.478260869565217,2.934782608695652,1.7425306728518812,27.93566381164358,29.67819448449546,493.0415568401286,570.0052154070396
1.7104000124107825E12,2.0760869565217392,-6.467391304347826,2.9130434782608696,1.7497428357294604,27.92419647266823,29.67393930839769,493.05742359845925,570.0086772452208
1.7104000124303142E12,2.0543478260869565,-6.478260869565217,2.9565217391304346,1.756378025576833,27.909700025284295,29.666078050861127,493.0644193964505,570.0018256904872
1.7104000124498462E12,2.0543478260869565,-6.5,2.9239130434782608,1.752988309024371,27.898953902596702,29.651942211621073,493.05684662542905,570.0164663811287
1.710400012469378E12,2.032608695652174,-6.445652173913043,2.858695652173913,1.7552240795164205,27.881211981917858,29.636436061434278,493.05828905800456,570.0109130157128
1.71040001248891E12,2.0,-6.456521739130435,2.891304347826087,1.738852469784316,27.878543481653153,29.61739595143747,493.07163155932807,570.0294482743083
1.7104000125084417E12,2.032608695652174,-6.434782608695652,2.891304347826087,1.7387803481555402,27.881716833319288,29.62049718147483,493.0471102055443,570.0328379908607
1.7104000125279736E12,2.0217391304347827,-6.445652173913043,2.880434782608696,1.7400064158447286,27.86145065563329,29.60145707147802,493.0167469998297,570.0520944657438
1.7104000125475054E12,2.032608695652174,-6.456521739130435,2.8369565217391304,1.7358233613757328,27.85221908714999,29.588042448525723,493.0100396883535,570.0484883843051
1.7104000125670374E12,2.0217391304347827,-6.434782608695652,2.869565217391304,1.7399342942159528,27.85120938434713,29.591143678563082,493.04819202997595,570.059162385364
1.710400012586569E12,2.032608695652174,-6.489130434782608,2.880434782608696,1.7469300922072044,27.90090118657365,29.647831278780853,493.05994785546636,570.0650763589235
1.710400012606101E12,2.0217391304347827,-6.489130434782608,2.8369565217391304,1.7811157442469294,27.90753637642102,29.68865212066795,493.06153453129946,570.0614702774848
1.7104000126256328E12,2.032608695652174,-6.456521739130435,2.8478260869565215,1.7928715697373832,27.91251276880655,29.705384338543933,493.0655733425109,570.069115170135
1.7104000126451648E12,1.9891304347826086,-6.456521739130435,2.8478260869565215,1.7586137960688826,27.855608803702452,29.614222599771335,493.0882916555753,570.0756061167248
1.7104000126646965E12,2.010869565217391,-6.478260869565217,2.8260869565217392,1.7340924422851138,27.805556393332054,29.539648835617168,493.1107214821245,570.0823855498297
1.7104000126842285E12,2.0217391304347827,-6.456521739130435,2.8260869565217392,1.7355348748606296,27.786516283335246,29.522051158195875,493.1014899136412,570.0822413065722
1.7104000127037603E12,2.032608695652174,-6.434782608695652,2.858695652173913,1.73329910436858,27.78132352606339,29.51462263043197,493.133728281704,570.1002717137661
1.710400012723292E12,2.0,-6.478260869565217,2.8369565217391304,1.7498149573582362,27.72023650649029,29.470051463848527,493.14685441814123,570.1922267904553
1.710400012742824E12,2.043478260869565,-6.478260869565217,2.8152173913043477,2.0043321853080016,28.087047110443965,30.091379295751967,493.1382719443169,570.0095427047662
1.7104000127623557E12,2.032608695652174,-6.478260869565217,2.891304347826087,2.0357050938254706,28.327067891009797,30.362772984835267,493.1426713636722,569.6921354165239
1.7104000127818877E12,2.0652173913043477,-6.456521739130435,2.8369565217391304,1.7516901197064068,27.663260419757417,29.414950539463824,493.1375507280291,570.0109851373417
1.7104000128014194E12,1.967391304347826,-6.445652173913043,2.9456521739130435,1.7964776511761729,27.789905999887708,29.58638365106388,493.14187802575566,570.1754945725793
1.7104000128209514E12,2.0543478260869565,-6.521739130434782,2.760869565217391,1.7969103809488276,27.779520485343994,29.57643086629282,493.12997795700767,570.2033335212867
1.7104000128404832E12,2.0217391304347827,-6.423913043478261,2.880434782608696,1.8110462201888824,27.774904701102344,29.585950921291225,493.12197245621354,570.2287924562446
1.7104000128600151E12,2.0543478260869565,-6.4021739130434785,2.760869565217391,1.8162389774607395,27.7890405403424,29.605279517803137,493.13603617382483,570.2430725387421
1.7104000128795469E12,2.0217391304347827,-6.456521739130435,2.8043478260869565,1.834341506283463,27.79279086503874,29.6271323713222,493.1359640521961,570.2549726074902
1.7104000128990789E12,2.0217391304347827,-6.5,2.934782608695652,1.8445106559408495,27.812263704808203,29.65677436074905,493.13250221401483,570.2919710030521
1.7104000129186106E12,2.0760869565217392,-6.532608695652174,2.880434782608696,1.8704023206713583,27.828202584767652,29.69860490543901,493.13192524098463,570.327094236266
1.7104000129381426E12,2.0760869565217392,-6.467391304347826,2.880434782608696,1.9248541503970804,27.84810815430977,29.77296230470685,493.15752841920005,570.3957540268606
1.7104000129576743E12,2.0652173913043477,-6.489130434782608,2.8369565217391304,1.957381004974962,27.867436750821682,29.824817755796644,493.1444022827628,570.4471767481776
1.7104000129772063E12,2.043478260869565,-6.467391304347826,2.8260869565217392,2.0298632418946316,27.88597200941706,29.91583525131169,493.13834406594566,570.4534513298812
1.710400012996738E12,2.032608695652174,-6.434782608695652,2.8369565217391304,2.0205595517825548,27.89541994278669,29.915979494569243,493.12327064553153,570.4201311373868
1.7104000130162698E12,2.0543478260869565,-6.445652173913043,2.891304347826087,1.9591840456943568,27.862099750292273,29.82128379598663,493.12074638852437,570.336397926378
1.7104000130358018E12,2.0652173913043477,-6.456521739130435,2.891304347826087,1.8303748167007945,27.760624618604737,29.59099943530553,493.1278864297732,570.2457410390069
1.7104000130553335E12,2.0652173913043477,-6.456521739130435,2.880434782608696,1.7933764211388137,27.707903707969635,29.501280129108448,493.1216118480697,570.2221572663972
1.7104000130748655E12,2.043478260869565,-6.478260869565217,2.891304347826087,1.769143553870148,27.68821450331384,29.45735805718399,493.13041068678035,570.2008813859084
1.7104000130943972E12,2.032608695652174,-6.489130434782608,2.9130434782608696,1.7578204581523489,27.68100234043626,29.43882279858861,493.11216391470003,570.2075886973845
1.7104000131139292E12,2.0543478260869565,-6.532608695652174,2.7717391304347827,1.766114445461565,27.65720220294025,29.423316648401816,493.07588673542585,570.2331197539711
1.710400013133461E12,2.032608695652174,-6.434782608695652,2.9782608695652173,1.7562337823192815,27.666361649794776,29.422595432114058,493.1012014271261,570.229946402305
1.710400013152993E12,2.0543478260869565,-6.467391304347826,2.8478260869565215,1.7531325522819226,27.658861000402094,29.411993552684017,493.11079360375334,570.2437216334012
1.7104000131725247E12,2.0760869565217392,-6.413043478260869,2.858695652173913,1.7562337823192815,27.653019148471255,29.409252930790537,493.1283191595458,570.2536744181722
1.7104000131920566E12,2.0543478260869565,-6.467391304347826,2.9782608695652173,1.7576040932660215,27.65222581055472,29.409829903820743,493.1164190907978,570.2448755794616
1.7104000132115884E12,2.0543478260869565,-6.521739130434782,2.9239130434782608,1.7618592693637931,27.62893052446014,29.390789793823934,493.1101445090943,570.2544677560887
1.7104000132311204E12,2.0760869565217392,-6.521739130434782,2.934782608695652,1.7558731741754026,27.626766875596868,29.38264004977227,493.11021663072313,570.2564150400657
1.710400013250652E12,2.0543478260869565,-6.456521739130435,2.891304347826087,1.755728930917851,27.591210912610403,29.346939843528254,493.14202226901324,570.276248487979
1.710400013270184E12,2.0217391304347827,-6.434782608695652,2.9130434782608696,1.7548634713725415,27.587027858141408,29.34189132951395,493.1463495667398,570.2728587714266
1.7104000132897158E12,2.032608695652174,-6.423913043478261,2.880434782608696,1.7578925797811247,27.55082280049596,29.308715380277086,493.14822472908793,570.2772581907819
1.7104000133092478E12,2.0543478260869565,-6.423913043478261,2.934782608695652,1.7416652133065718,27.556953138941903,29.298618352248475,493.1436089448463,570.2794939612739
1.7104000133287795E12,2.032608695652174,-6.456521739130435,2.9130434782608696,1.7501755655021152,27.529474798378327,29.279650363880442,493.12355913204664,570.2883649216134
1.7104000133483113E12,2.0543478260869565,-6.478260869565217,2.9130434782608696,1.7542864983423352,27.513463796790102,29.267750295132437,493.1328628221587,570.2995437740736
1.7104000133678433E12,2.0543478260869565,-6.478260869565217,2.902173913043478,1.7510410250474246,27.502501309216182,29.253542334263607,493.1281749162883,570.2970195170665
1.710400013387375E12,2.043478260869565,-6.445652173913043,2.902173913043478,1.7450549298590339,27.484398780393455,29.22945371025249,493.1262276323113,570.3045201664592
1.710400013406907E12,2.032608695652174,-6.434782608695652,2.934782608695652,1.7576762148947973,27.51130014792683,29.268976362821626,493.1216118480697,570.3135353700561
1.7104000134264387E12,2.0543478260869565,-6.478260869565217,2.9891304347826084,1.7845054607993915,27.532936636559565,29.317442097358956,493.0851904255379,570.3182232759266
1.7104000134459707E12,2.0217391304347827,-6.467391304347826,2.891304347826087,1.8030407193947697,27.550967043753513,29.35400776314828,493.1077644953447,570.3067559369512
1.7104000134655024E12,2.0217391304347827,-6.445652173913043,2.934782608695652,1.8010934354178234,27.485192118309993,29.286285553727815,493.09550381845287,570.3328639665681
1.7104000134850344E12,2.0217391304347827,-6.478260869565217,2.9565217391304346,1.7687829457262692,27.449491912065973,29.21827485779224,493.11944819920643,570.3374797508097
1.7104000135045662E12,2.0217391304347827,-6.456521739130435,2.9130434782608696,1.7689993106125965,27.391217636015135,29.16021694662773,493.1173566719719,570.3404367375895
1.7104000135240981E12,2.043478260869565,-6.445652173913043,2.9456521739130435,1.7665471752342197,27.38515941919797,29.151706594432188,493.1244967132207,570.3435379676268
1.71040001354363E12,2.0217391304347827,-6.478260869565217,2.9782608695652173,1.7614265395911384,27.35256044299131,29.11398698258245,493.1391374038622,570.366977496979
1.7104000135631619E12,2.0217391304347827,-6.5,2.9239130434782608,1.937042705660189,27.5069007285715,29.44394343423169,493.116996063828,570.4588604520393
1.7104000135826936E12,2.0217391304347827,-6.434782608695652,3.010869565217391,2.200863623722032,28.19760956735725,30.398473191079283,493.1079087386023,569.9672073086748
1.7104000136022256E12,2.043478260869565,-6.489130434782608,3.0217391304347827,1.7673405131507534,27.2441616349413,29.011502148092053,493.12940098397746,570.179100654018
1.7104000136217573E12,1.9456521739130435,-6.423913043478261,2.891304347826087,1.8097480308709182,27.3013540865605,29.111102117431418,493.1441859178765,570.3842145662564
1.7104000136412893E12,2.032608695652174,-6.4021739130434785,2.9891304347826084,1.8086662064392813,27.36373929545156,29.17240550189084,493.13603617382483,570.4160923261753
1.710400013660821E12,2.0,-6.423913043478261,2.9565217391304346,1.8203499103009595,27.32926515689673,29.14961506719769,493.1557253784806,570.4401088285576
1.7104000136803528E12,2.0978260869565215,-6.4021739130434785,2.9130434782608696,1.8362887902604093,27.328183332465095,29.164472122725503,493.1658224065092,570.4545331543128
1.7104000136998848E12,2.043478260869565,-6.423913043478261,3.0,1.832249979048965,27.34794465874966,29.180194637798625,493.1548599189353,570.4779726836649
1.7104000137194165E12,2.0217391304347827,-6.565217391304348,3.032608695652174,1.8606659007866266,27.357681078634393,29.218346979421018,493.1542829459051,570.4897285091554
1.7104000137389485E12,2.043478260869565,-6.554347826086956,2.9891304347826084,1.8898030388120461,27.370662971814035,29.260466010626082,493.09132076398384,570.5224717286196
1.7104000137584802E12,2.010869565217391,-6.456521739130435,3.032608695652174,1.9245656638819773,27.362441106133595,29.287006770015573,493.118943347805,570.5649513679685
1.7104000137780122E12,2.0543478260869565,-6.434782608695652,2.9891304347826084,1.9581743428914957,27.39439098768127,29.352565330572766,493.13279070052994,570.6002188444398
1.710400013797544E12,2.0652173913043477,-6.423913043478261,2.9782608695652173,2.0416911890138616,27.40023283961211,29.44192402862597,493.1422386338996,570.6550312823094
1.710400013817076E12,2.032608695652174,-6.445652173913043,3.010869565217391,2.0764538140837927,27.40470438059621,29.481158194680003,493.14375318810386,570.6490451871211
1.7104000138366077E12,2.0978260869565215,-6.434782608695652,3.032608695652174,2.004837036709432,27.432976059076317,29.43781309578575,493.1891176926038,570.5597586106967
1.7104000138561396E12,2.0652173913043477,-6.467391304347826,3.043478260869565,1.927378407404233,27.363811417080335,29.29118982448457,493.1707987988948,570.4975176450631
1.7104000138756714E12,2.0760869565217392,-6.489130434782608,3.010869565217391,1.8252541810577132,27.302003181219483,29.127257362277195,493.2146487491905,570.4375124499217
1.7104000138952034E12,2.0652173913043477,-6.478260869565217,3.043478260869565,1.7938812725402442,27.27531817857244,29.069199451112684,493.1873867735132,570.4310936249607
1.710400013914735E12,2.043478260869565,-6.467391304347826,3.0760869565217392,1.7713793243621976,27.25303259528072,29.02441191964292,493.2178221008566,570.4307330168168
1.710400013934267E12,2.043478260869565,-6.510869565217391,3.0543478260869565,1.7834957579965305,27.24603679728947,29.029532555286,493.18507888139237,570.4248190432571
1.7104000139537988E12,2.032608695652174,-6.413043478260869,3.0760869565217392,1.7686387024687176,27.221443321876926,28.990082024345643,493.11461605007844,570.4424167206785
1.7104000139733306E12,2.043478260869565,-6.380434782608695,2.9565217391304346,1.769504162014027,27.25324896016705,29.022753122181076,493.1422386338996,570.445445829087
1.7104000139928625E12,2.0,-6.369565217391304,3.2065217391304346,1.771595689248525,27.262624771907902,29.034220461156426,493.16106237901005,570.4344112198844
1.7104000140123943E12,2.032608695652174,-6.478260869565217,3.119565217391304,1.7785193656110008,27.239906458843528,29.01842582445453,493.18991103052036,570.443210058595
1.7104000140319263E12,2.0978260869565215,-6.445652173913043,3.032608695652174,1.7685665808399418,27.258441717438906,29.027008298278847,493.214792992448,570.4385942743534
1.710400014051458E12,2.043478260869565,-6.380434782608695,3.0869565217391304,1.7626526072803268,27.26796177243731,29.030614379717637,493.19467105801954,570.4405415583303
1.71040001407099E12,2.043478260869565,-6.369565217391304,3.0543478260869565,1.7754181355736418,27.238391904639236,29.013810040212878,493.2206348443788,570.437728814808
1.7104000140905217E12,2.010869565217391,-6.3478260869565215,3.0652173913043477,1.7527719441380436,27.257576257893597,29.01034820203164,493.2079414377143,570.4376566931793
1.7104000141100537E12,2.043478260869565,-6.326086956521739,3.0,1.7514737548200794,27.25461927111379,29.00609302593387,493.1838528137032,570.4331851521952
1.7104000141295854E12,2.032608695652174,-6.358695652173913,2.9891304347826084,1.7470022138359802,27.25187864922031,28.99888086305629,493.1715200151825,570.4225832727651
1.7104000141491174E12,2.032608695652174,-6.358695652173913,2.967391304347826,1.7610659314472594,27.26370659633954,29.024772527786798,493.19301226055774,570.4341227333692
1.7104000141686492E12,2.010869565217391,-6.4021739130434785,3.043478260869565,1.7658259589464618,27.29298797762251,29.05881393656897,493.1739000289321,570.4268384488629
1.7104000141881812E12,2.032608695652174,-6.413043478260869,3.0760869565217392,1.8023195031070118,27.33200577879021,29.134325281897222,493.22467365559027,570.4243863134845
1.710400014207713E12,2.032608695652174,-6.4021739130434785,3.043478260869565,1.7894097315561452,27.295079504857007,29.08448923641315,493.20505657256325,570.4243863134845
1.7104000142272449E12,2.010869565217391,-6.413043478260869,3.032608695652174,1.757748336523573,27.245459824259264,29.003208160782837,493.1992868422612,570.4241699485982
1.7104000142467766E12,2.032608695652174,-6.423913043478261,3.0,1.75608953906173,27.20348503631175,28.95957457537348,493.18673767885423,570.4327524224225
1.7104000142663086E12,2.0543478260869565,-6.4021739130434785,3.032608695652174,1.7546471064862141,27.186969183322095,28.94161628980831,493.1859443409377,570.4279202732945
1.7104000142858403E12,2.0652173913043477,-6.434782608695652,3.0760869565217392,1.7428912809957602,27.160284180675053,28.903175461670813,493.2413337518375,570.4614568306753
1.710400014305372E12,2.0543478260869565,-6.456521739130435,3.0652173913043477,1.8092431794694877,27.20593717169013,29.015180351159618,493.18435766510464,570.5479306635774
1.710400014324904E12,2.0652173913043477,-6.445652173913043,3.0652173913043477,2.151388186381839,28.11365999146223,30.265048177844072,493.2026044371849,570.0238949088925
1.7104000143444358E12,2.0652173913043477,-6.478260869565217,3.0652173913043477,1.8035455707962003,27.32537058894284,29.12891615973904,493.2093838702898,570.1413810421683
1.7104000143639678E12,1.967391304347826,-6.4021739130434785,3.010869565217391,1.7855872852310284,27.1601399374175,28.94572722264853,493.22719791259743,570.4754484266577
1.7104000143834995E12,1.9782608695652173,-6.434782608695652,3.0869565217391304,1.796766137691276,27.198508643926225,28.9952747816175,493.1885407195736,570.4966521855179
1.7104000144030315E12,2.043478260869565,-6.423913043478261,3.0,1.8044110303415097,27.18199279093657,28.986403821278078,493.2014504911245,570.518793525552
1.7104000144225632E12,2.0978260869565215,-6.413043478260869,2.934782608695652,1.8134262339384837,27.196489238320503,29.009915472258985,493.21046569472145,570.536823932746
1.7104000144420952E12,2.0543478260869565,-6.413043478260869,3.032608695652174,1.8224414375354574,27.20182623884991,29.024267676385367,493.2127014652135,570.5463439877444
1.710400014461627E12,2.0543478260869565,-6.5,3.0217391304347827,1.8398948716991987,27.213798429226692,29.05369330092589,493.2192645334321,570.5649513679685
1.710400014481159E12,2.0,-6.510869565217391,2.9782608695652173,1.8655701715433803,27.21740451066548,29.08297468220886,493.19589712570877,570.6031037095909
1.7104000145006907E12,2.032608695652174,-6.445652173913043,3.032608695652174,1.9092758785815096,27.238031296495354,29.147307175076865,493.19625773385263,570.6476748761744
1.7104000145202227E12,2.0543478260869565,-6.445652173913043,3.0217391304347827,1.9539191667937241,27.24856105429662,29.202480221090344,493.22128393903785,570.6874860152586
1.7104000145397544E12,2.0543478260869565,-6.456521739130435,2.934782608695652,2.004909158338208,27.261254460961162,29.26616361929937,493.2061383969949,570.7223207619573
1.7104000145592864E12,2.0,-6.434782608695652,2.9782608695652173,2.044359689278566,27.28491035519962,29.329270044478186,493.20563354559346,570.7288117085471
1.710400014578818E12,2.0543478260869565,-6.456521739130435,2.9456521739130435,2.012986780761097,27.297892248379263,29.31087902914036,493.2106820596078,570.673494419276
1.71040001459835E12,2.043478260869565,-6.456521739130435,2.934782608695652,1.871195658587892,27.260461123044628,29.13165678163252,493.2046959644194,570.5575949618334
1.7104000146178818E12,2.043478260869565,-6.5,2.9239130434782608,1.802968597765994,27.22923245778471,29.032201055550704,493.20902326214593,570.5180723092643
1.7104000146374136E12,2.0543478260869565,-6.5,2.934782608695652,1.7690714322413723,27.210552955931778,28.97962438817315,493.19726743665547,570.5028546455926
1.7104000146569456E12,2.0543478260869565,-6.5,2.9130434782608696,1.7656095940601344,27.202258968622562,28.967868562682696,493.23758342714115,570.4978782532071
1.7104000146764773E12,2.0217391304347827,-6.510869565217391,2.869565217391304,1.7528440657668194,27.215024496915877,28.967868562682696,493.2468871172532,570.4799199676419
1.7104000146960093E12,2.0543478260869565,-6.467391304347826,3.043478260869565,1.7545028632286626,27.213726307597913,28.968229170826575,493.2481853065712,570.4802084541569
1.710400014715541E12,2.0652173913043477,-6.445652173913043,2.760869565217391,1.7508246601610973,27.2149523752871,28.9657770354482,493.27580789039234,570.4854012114288
1.710400014735073E12,2.0,-6.369565217391304,2.9239130434782608,1.748444646411496,27.228439119868174,28.97688376627967,493.24255981952666,570.4960030908588
1.7104000147546047E12,1.9891304347826086,-6.434782608695652,3.0543478260869565,1.7614986612199142,27.23081913361778,28.992317794837692,493.22965004797584,570.489223657754
1.7104000147741367E12,2.032608695652174,-6.510869565217391,2.9456521739130435,1.778447243982225,27.209975982901575,28.9884232268838,493.25207987452507,570.4929739824503
1.7104000147936685E12,2.0217391304347827,-6.489130434782608,2.9782608695652173,1.7662586887191165,27.213221456196482,28.9794801449156,493.23549189990666,570.4913151849885
1.7104000148132004E12,2.010869565217391,-6.510869565217391,2.9456521739130435,1.7609938098184836,27.206153536576455,28.96714734639494,493.24890652285893,570.4918200363899
1.7104000148327322E12,1.9891304347826086,-6.489130434782608,2.9130434782608696,1.7609216881897078,27.196849846464378,28.957771534654086,493.2421992113828,570.4850406032849
1.7104000148522642E12,2.0,-6.456521739130435,2.934782608695652,1.7578204581523489,27.184444926314942,28.94226538446729,493.3379046127683,570.4758090348016
1.710400014871796E12,2.0,-6.467391304347826,2.902173913043478,1.75745985000847,27.178098222982673,28.935558072991142,493.2457331711928,570.4687411151816
1.710400014891328E12,1.9891304347826086,-6.445652173913043,2.9130434782608696,1.753998011827232,27.16958787078713,28.92358588261436,493.27804366088435,570.4625386551069
1.7104000149108596E12,2.010869565217391,-6.423913043478261,2.9130434782608696,1.7454155380029128,27.17780973646757,28.923225274470482,493.22979429123336,570.468957480068
1.7104000149303914E12,2.0217391304347827,-6.434782608695652,2.9130434782608696,1.7638065533407394,27.157038707380142,28.92084526072088,493.2530174556992,570.4616010739328
1.7104000149499233E12,2.010869565217391,-6.423913043478261,2.9456521739130435,1.7579647014099005,27.20420625259951,28.96217095400941,493.218976046917,570.4609519792739
1.710400014969455E12,1.9891304347826086,-6.445652173913043,2.902173913043478,1.7746247976571081,27.2167554160065,28.991380213663607,493.181977651355,570.4605192495012
1.710400014988987E12,2.0,-6.434782608695652,2.902173913043478,1.7965497728049487,27.24055555350251,29.037105326307458,493.2013783694957,570.4442197613979
1.7104000150085188E12,2.0,-6.467391304347826,2.902173913043478,1.7886885152683873,27.212355996651176,29.001044511919563,493.1999359369202,570.4418397476483
1.7104000150280508E12,1.9891304347826086,-6.467391304347826,2.9130434782608696,1.7564501472056089,27.163890262113842,28.92034040931945,493.1927958956714,570.4396039771563
1.7104000150475825E12,1.9891304347826086,-6.434782608695652,2.9130434782608696,1.7585416744401068,27.113837851743444,28.87237952618355,493.20209958578346,570.4394597338986
1.7104000150671145E12,2.032608695652174,-6.434782608695652,2.891304347826087,1.747434943608635,27.114198459887323,28.861633403495958,493.2088790188884,570.4442918830266
1.7104000150866462E12,2.0217391304347827,-6.423913043478261,2.902173913043478,1.7461367542906707,27.0618381573961,28.80797491168677,493.22041847949254,570.484391508626
1.7104000151061782E12,2.010869565217391,-6.456521739130435,2.891304347826087,1.853597981166599,27.171967884536734,29.02556586570333,493.1879637465434,570.5640137867945
1.71040001512571E12,2.032608695652174,-6.456521739130435,2.9239130434782608,2.1805253244072587,27.78824720242586,29.96877252683312,493.1550041621929,570.0557726688114
1.710400015145242E12,2.043478260869565,-6.478260869565217,2.9239130434782608,1.8361445470028577,27.05873692735874,28.894881474361597,493.19582500407995,570.1871782764409
1.7104000151647737E12,1.9782608695652173,-6.434782608695652,2.9456521739130435,1.7741920678844534,27.06883395538735,28.843026023271804,493.1900552737779,570.413279582653
1.7104000151843057E12,1.967391304347826,-6.489130434782608,2.9239130434782608,1.7896982180712484,27.12537731234757,28.915075530418818,493.2166681547962,570.4814345218462
1.7104000152038374E12,2.010869565217391,-6.445652173913043,2.8043478260869565,1.7911406506467642,27.13085855613453,28.921999206781294,493.20152261275325,570.487925468436
1.7104000152233694E12,2.0,-6.391304347826087,2.8478260869565215,1.8124886527643984,27.126098528635328,28.938587181399726,493.20866265400207,570.5115092410457
1.7104000152429011E12,2.010869565217391,-6.413043478260869,2.8260869565217392,1.8189795993542195,27.133527056399235,28.952506655753453,493.200008058549,570.5195147418398
1.7104000152624329E12,1.9891304347826086,-6.456521739130435,2.9239130434782608,1.836360911889185,27.142037408594778,28.97839832048396,493.1974838015418,570.5443245821386
1.7104000152819648E12,2.0,-6.510869565217391,2.9565217391304346,1.8606659007866266,27.146653192836432,29.007319093623057,493.1895504223765,570.5684132061498
1.7104000153014966E12,2.0217391304347827,-6.5,2.8478260869565215,1.8792011593820048,27.165044208174255,29.04424536755626,493.2103935730927,570.5954588169407
1.7104000153210286E12,2.0217391304347827,-6.467391304347826,2.858695652173913,1.9500245988398313,27.17968489881574,29.129709497655572,493.2346985619901,570.6511367143556
1.7104000153405603E12,2.010869565217391,-6.456521739130435,2.8152173913043477,1.996975779172871,27.195335292260086,29.192311071432957,493.25006046891934,570.6752974599955
1.7104000153600923E12,2.010869565217391,-6.456521739130435,2.8478260869565215,2.0323874989017843,27.207018996121768,29.23940649502355,493.2372228189973,570.6720519867006
1.710400015379624E12,2.0217391304347827,-6.456521739130435,2.8260869565217392,2.008154631633119,27.195046805744983,29.2032014373781,493.2181105873717,570.5912036408429
1.710400015399156E12,2.032608695652174,-6.445652173913043,2.8369565217391304,1.8838169436236554,27.09919716110196,28.983014104725616,493.2433531574432,570.4755205482866
1.7104000154186877E12,2.0217391304347827,-6.456521739130435,2.858695652173913,1.8076565036364203,27.046548372095632,28.85420487573205,493.20837416748697,570.4270548137492
1.7104000154382197E12,2.032608695652174,-6.489130434782608,2.8260869565217392,1.780178163072844,27.008107543958136,28.78828570703098,493.2155142087358,570.4120535149639
1.7104000154577515E12,2.043478260869565,-6.478260869565217,2.8369565217391304,1.765753837317686,26.980917689909663,28.74667152722735,493.23578038642177,570.3876042828089
1.7104000154772834E12,2.0217391304347827,-6.521739130434782,2.8152173913043477,1.7679174861809597,26.97204672957024,28.7399642157512,493.24111738695115,570.3878206476952
1.7104000154968152E12,2.0760869565217392,-6.5,2.8369565217391304,1.7689993106125965,26.96404122877613,28.733040539388725,493.26383570001553,570.3914988507628
1.7104000155163472E12,2.0543478260869565,-6.423913043478261,2.902173913043478,1.7686387024687176,26.957189674042425,28.725828376511142,493.23844888668646,570.3938788645123
1.710400015535879E12,2.0543478260869565,-6.423913043478261,2.8260869565217392,1.7658259589464618,26.954449052148945,28.720275011095406,493.236357359452,570.3972685810648
1.710400015555411E12,2.0217391304347827,-6.445652173913043,2.880434782608696,1.7651047426587039,26.95574724146691,28.720851984125613,493.23065975077867,570.396547364777
1.7104000155749426E12,2.0,-6.478260869565217,2.9565217391304346,1.7699368917866818,26.949328416505864,28.719265308292545,493.2127014652135,570.3870273097787
1.7104000155944744E12,2.043478260869565,-6.5,2.9239130434782608,1.7594071339854163,26.951492065369138,28.710899199354554,493.2216445471817,570.3819787957643
1.7104000156140063E12,2.0869565217391304,-6.5,2.9239130434782608,1.7673405131507534,26.93930351010603,28.706644023256782,493.2187596820307,570.3743339031141
1.710400015633538E12,2.0652173913043477,-6.478260869565217,2.902173913043478,1.7664750536054439,26.898554789847708,28.66502984345315,493.2569841452818,570.3754157275457
1.71040001565307E12,2.0652173913043477,-6.478260869565217,2.934782608695652,1.759839863758071,26.890693532311147,28.650533396069218,493.2445071035036,570.3889745937556
1.7104000156726018E12,2.043478260869565,-6.434782608695652,2.9130434782608696,1.7537095253121289,26.8842747073501,28.63798423266223,493.2225821283558,570.3781563494392
1.7104000156921338E12,2.032608695652174,-6.445652173913043,2.9130434782608696,1.7558010525466268,26.87576435515456,28.631565407701185,493.2238803176738,570.3721702542508
1.7104000157116655E12,2.032608695652174,-6.467391304347826,2.869565217391304,1.7628689721666542,26.862133367315934,28.625002339482588,493.21291783009985,570.36986236213
1.7104000157311975E12,2.032608695652174,-6.456521739130435,2.9130434782608696,1.7511852683049762,26.865883692012275,28.61706896031725,493.20152261275325,570.3637320236841
1.7104000157507292E12,2.0217391304347827,-6.467391304347826,2.934782608695652,1.7545028632286626,26.85261331231753,28.607116175546192,493.1979165313145,570.3600538206165
1.7104000157702612E12,1.9891304347826086,-6.489130434782608,2.902173913043478,1.755368322773972,26.846843582015467,28.60221190478944,493.2080135593431,570.3532022658828
1.710400015789793E12,2.0217391304347827,-6.467391304347826,2.902173913043478,1.7441894703137244,26.848286014590983,28.592475484904707,493.21075418123655,570.3474325355808
1.710400015809325E12,2.010869565217391,-6.456521739130435,2.9130434782608696,1.7630132154242057,26.825856188041712,28.588869403465917,493.1984213827159,570.3423840215664
1.7104000158288567E12,2.0217391304347827,-6.445652173913043,2.934782608695652,1.7596956205005194,26.855570299097337,28.615265919597856,493.18435766510464,570.3403646159608
1.7104000158483887E12,2.0217391304347827,-6.456521739130435,2.934782608695652,1.78573152848858,26.88701532924358,28.67274685773216,493.198060774572,570.3342342775147
1.7104000158679204E12,2.0217391304347827,-6.489130434782608,2.9239130434782608,1.8130656257946047,26.906848777156924,28.719914402951527,493.1886849628312,570.3193051003582
1.7104000158874521E12,2.0217391304347827,-6.510869565217391,2.869565217391304,1.809820152499694,26.894443857007488,28.70426400950718,493.1591150950331,570.3185117624416
1.7104000159069841E12,1.967391304347826,-6.489130434782608,2.880434782608696,1.7652489859162555,26.82434163383742,28.589590619753675,493.1870982869981,570.324209371115
1.7104000159265159E12,2.0,-6.478260869565217,2.880434782608696,1.7572434851221426,26.802488780318356,28.5597322654405,493.1787321780601,570.3214687492215
1.7104000159460479E12,2.043478260869565,-6.456521739130435,2.858695652173913,1.7480119166388413,26.798882698879567,28.546894615518408,493.2013783694957,570.3211081410776
1.7104000159655796E12,2.010869565217391,-6.467391304347826,2.902173913043478,1.7596234988717436,26.776308629072744,28.535932127944488,493.2111147893804,570.3249305874027
1.7104000159851116E12,2.010869565217391,-6.478260869565217,2.880434782608696,1.9129540816490749,26.923941603176786,28.836895684825862,493.2013062478669,570.397845554095
1.7104000160046433E12,2.0217391304347827,-6.478260869565217,2.9239130434782608,2.2568300076520456,27.563444085531724,29.82027409318377,493.21190812729697,569.8540484731255
1.7104000160241753E12,2.032608695652174,-6.478260869565217,2.9239130434782608,1.9878884539471215,27.05462599451852,29.042514448465642,493.2278470072564,569.972616430833
1.710400016043707E12,1.967391304347826,-6.445652173913043,3.0,1.8086662064392813,26.776669237216623,28.585335443655904,493.26643207865146,570.3255075604329
1.710400016063239E12,1.9891304347826086,-6.467391304347826,2.9130434782608696,1.8040504221976308,26.804724550810406,28.608774973008035,493.2225821283558,570.357313198723
1.7104000160827708E12,1.9891304347826086,-6.4021739130434785,2.8043478260869565,1.812993504165829,26.796286320243638,28.609279824409466,493.1992868422612,570.3815460659916
1.7104000161023027E12,1.967391304347826,-6.391304347826087,3.010869565217391,1.8333318034806019,26.78957900876749,28.62291081224809,493.1829152325291,570.3893352018995
1.7104000161218345E12,2.0543478260869565,-6.423913043478261,2.902173913043478,1.8450876289710558,26.80638334827225,28.651470977243303,493.230876115665,570.4217178132199
1.7104000161413665E12,1.9891304347826086,-6.510869565217391,3.0543478260869565,1.8524440351061864,26.831409553457448,28.683853588563633,493.22496214210537,570.4343390982556
1.7104000161608982E12,1.9782608695652173,-6.554347826086956,2.9456521739130435,1.8894424306681672,26.85275755557508,28.74219998624325,493.2093838702898,570.4675871691212
1.7104000161804302E12,1.967391304347826,-6.478260869565217,2.9456521739130435,1.9083382974074243,26.864729745951863,28.773068043359288,493.2046959644194,570.5016285779034
1.710400016199962E12,1.9891304347826086,-6.413043478260869,2.9239130434782608,1.9521882477031052,26.88946746462196,28.841655712325064,493.21176388403944,570.5312705673302
1.7104000162194937E12,1.9782608695652173,-6.445652173913043,2.891304347826087,2.0305844581823895,26.926033130411284,28.956617588593673,493.22965004797584,570.5832702616776
1.7104000162390256E12,2.0217391304347827,-6.413043478260869,2.9565217391304346,2.0623900964725133,26.94810234881668,29.01049244528919,493.2323185482405,570.5656004626275
1.7104000162585574E12,2.010869565217391,-6.423913043478261,2.967391304347826,2.034262661249955,26.94016896965134,28.974431630901293,493.23217430498295,570.4796314811267
1.7104000162780894E12,2.043478260869565,-6.445652173913043,2.9565217391304346,1.951178544900244,26.906488169013045,28.85766671391329,493.2332561294146,570.3743339031141
1.710400016297621E12,2.0217391304347827,-6.467391304347826,2.9456521739130435,1.837442736320822,26.814965822096568,28.652408558417388,493.24414649535976,570.3082704911554
1.710400016317153E12,2.0543478260869565,-6.467391304347826,2.9565217391304346,1.8109019769313308,26.786261413843803,28.597163390775133,493.2076529511992,570.2869224890378
1.7104000163366848E12,2.0217391304347827,-6.456521739130435,2.967391304347826,1.7997231244710834,26.768447371536183,28.568170496007266,493.2152257222207,570.2886534081284
1.7104000163562168E12,2.010869565217391,-6.510869565217391,3.010869565217391,1.8044110303415097,26.754744262068783,28.559155292410292,493.2200578713486,570.2731472579417
1.7104000163757485E12,2.0217391304347827,-6.478260869565217,3.0,1.7902751911014547,26.749263018281823,28.539538209383277,493.2183990738868,570.2693969332454
1.7104000163952805E12,1.9891304347826086,-6.4021739130434785,3.043478260869565,1.8003722191300655,26.741329639116486,28.54170185824655,493.2266209395672,570.2672332843821
1.7104000164148123E12,1.9891304347826086,-6.380434782608695,2.934782608695652,1.7906357992453337,26.755753964871644,28.546389764116977,493.2234475879011,570.2768975826381
1.7104000164343442E12,2.032608695652174,-6.413043478260869,3.0760869565217392,1.793232177881262,26.762894006120447,28.55612618400171,493.2404682922922,570.2773303124106
1.710400016453876E12,2.010869565217391,-6.489130434782608,3.0652173913043477,1.8052043682580434,26.75669154604573,28.561895914303772,493.22150030392413,570.2545398777175
1.710400016473408E12,2.032608695652174,-6.532608695652174,2.9565217391304346,1.8000837326149624,26.75258061320551,28.55266434582047,493.20902326214593,570.2461016471508
1.7104000164929397E12,2.0217391304347827,-6.434782608695652,3.0217391304347827,1.8011655570465992,26.753013342978164,28.554178900024763,493.2339773457024,570.2399713087049
1.7104000165124717E12,2.032608695652174,-6.434782608695652,3.0217391304347827,1.8065746792047834,26.737218706276266,28.54379338548105,493.2326791563844,570.239899187076
1.7104000165320034E12,2.0869565217391304,-6.445652173913043,3.0652173913043477,1.7953958267445358,26.71486100135577,28.510256828100307,493.2672975381968,570.2322542944258
1.7104000165515352E12,2.0652173913043477,-6.423913043478261,3.108695652173913,1.7916455020481947,26.725462880785813,28.517108382834007,493.25734475342574,570.210617805793
1.7104000165710671E12,2.0652173913043477,-6.445652173913043,3.043478260869565,1.790852164131661,26.690556012458327,28.481408176589987,493.2440022521022,570.2075165757557
1.7104000165905989E12,2.0543478260869565,-6.413043478260869,3.0652173913043477,1.784000609397961,26.68485840378504,28.468859013183,493.24118950857996,570.2057135350364
1.7104000166101309E12,2.0543478260869565,-6.445652173913043,3.032608695652174,1.7962612862898455,26.74161812563159,28.537879411921434,493.2541714017596,570.1985013721587
1.7104000166296626E12,2.0978260869565215,-6.467391304347826,3.032608695652174,1.8041946654551824,26.756763667674505,28.560958333129687,493.2836691479289,570.1964098449242
1.7104000166491946E12,2.0978260869565215,-6.434782608695652,3.0978260869565215,1.844005804539419,26.78633353547258,28.630339340011997,493.30068985232,570.1806873298511
1.7104000166687263E12,2.0652173913043477,-6.489130434782608,3.0543478260869565,1.8242444782548521,26.758999438166555,28.583243916421406,493.2920352568669,570.1493144213337
1.7104000166882583E12,2.043478260869565,-6.489130434782608,3.043478260869565,1.7980643270092402,26.713057960636377,28.511122287645616,493.3002571225473,570.1375585958432
1.71040001670779E12,2.0652173913043477,-6.434782608695652,3.0543478260869565,1.7902751911014547,26.66704436147742,28.457319552578873,493.30321410932714,570.1461410696675
1.710400016727322E12,2.0760869565217392,-6.445652173913043,3.0217391304347827,1.784721825685719,26.65658672530493,28.441308550990648,493.2818661072095,570.1413810421683
1.7104000167468538E12,2.0978260869565215,-6.467391304347826,3.0760869565217392,1.7926552048510558,26.590595434975082,28.383250639826137,493.3226148274678,570.1899910199631
1.7104000167663857E12,2.0652173913043477,-6.434782608695652,3.0869565217391304,1.8990346072953472,26.720919218172934,28.619953825468283,493.30703655565225,570.2520156207104
1.7104000167859175E12,2.0869565217391304,-6.456521739130435,3.119565217391304,2.167759796113944,27.383212135221022,29.550971931334967,493.29592982482075,569.8652273255858
1.7104000168054495E12,2.108695652173913,-6.467391304347826,3.0869565217391304,1.773326608339144,26.677934727422564,28.451261335761707,493.3172057053096,569.9232852367503
1.7104000168249812E12,2.0652173913043477,-6.413043478260869,3.0217391304347827,1.8151571530291026,26.61374647781211,28.428903630841212,493.2902322161475,570.1417416503122
1.710400016844513E12,2.0760869565217392,-6.380434782608695,3.119565217391304,1.8416979124185935,26.677285632763585,28.518983545182177,493.29751650065384,570.1966262098106
1.710400016864045E12,2.0869565217391304,-6.434782608695652,3.0869565217391304,1.8385966823812345,26.71832283953701,28.556919521918243,493.26498964607595,570.1884764657589
1.7104000168835767E12,2.130434782608696,-6.423913043478261,2.934782608695652,1.858862860067232,26.676275929960724,28.535138790027954,493.2829479316411,570.212276603255
1.7104000169031086E12,2.0543478260869565,-6.358695652173913,3.0978260869565215,1.8662192662023624,26.72582348892969,28.592042755132052,493.2841018777015,570.2126372113988
1.7104000169226404E12,2.0543478260869565,-6.456521739130435,3.1304347826086953,1.8826629975632427,26.736353246730953,28.619016244294198,493.274293336188,570.2191281579886
1.7104000169421724E12,2.0652173913043477,-6.478260869565217,3.0760869565217392,1.9086267839225275,26.766788574074337,28.675415357996865,493.2911697973216,570.2427119305983
1.710400016961704E12,2.0543478260869565,-6.380434782608695,3.119565217391304,1.931489340244453,26.787920211305643,28.719409551550097,493.28814068891296,570.2701902711618
1.710400016981236E12,2.108695652173913,-6.33695652173913,3.0652173913043477,1.9965430494002163,26.835736851183995,28.83227990058421,493.3014110686077,570.3204590464186
1.7104000170007678E12,2.119565217391304,-6.315217391304348,3.0217391304347827,2.0458742434828574,26.84886298762119,28.894737231104045,493.2841018777015,570.3529137793677
1.7104000170202998E12,2.0760869565217392,-6.326086956521739,3.0978260869565215,2.1002539515798038,26.885212288524187,28.985466240103992,493.2714805926658,570.3226226952819
1.7104000170398315E12,2.108695652173913,-6.326086956521739,3.032608695652174,2.04154694575631,26.918604602647378,28.960151548403687,493.2734278766427,570.2611750675649
1.7104000170593635E12,2.0760869565217392,-6.380434782608695,3.0978260869565215,1.897375809833504,26.882111058486828,28.779486868320333,493.2757357687635,570.1666236122398
1.7104000170788953E12,2.0760869565217392,-6.413043478260869,3.032608695652174,1.8378033444647008,26.86393640803533,28.70173975250003,493.28547218864827,570.1127487555443
1.7104000170984272E12,2.0978260869565215,-6.434782608695652,3.0869565217391304,1.803978300568855,26.852396947431203,28.656375248000057,493.30544987981915,570.0965213890697
1.710400017117959E12,2.0652173913043477,-6.456521739130435,3.0543478260869565,1.7973431107214823,26.854199988150597,28.65154309887208,493.30689231239467,570.0831067661175
1.710400017137491E12,2.108695652173913,-6.478260869565217,3.0978260869565215,1.7982085702667918,26.8634315566339,28.66164012690069,493.3140323536435,570.0754618734672
1.7104000171570227E12,2.0543478260869565,-6.380434782608695,3.0760869565217392,1.7883279071245084,26.89920388450669,28.687531791631198,493.291025554064,570.0847655635793
1.7104000171765544E12,2.0869565217391304,-6.434782608695652,2.9782608695652173,1.7902751911014547,26.913628210261848,28.703903401363302,493.2807121611491,570.0738030760053
1.7104000171960864E12,2.043478260869565,-6.413043478260869,3.2282608695652173,1.7907079208741095,26.942837469916046,28.733545390790155,493.2667926867953,570.084549198693
1.7104000172156182E12,2.0760869565217392,-6.478260869565217,3.184782608695652,1.7951073402294326,26.96057939059489,28.755686730824323,493.235059170134,570.0680333457033
1.7104000172351501E12,2.0869565217391304,-6.445652173913043,3.119565217391304,1.804338908712734,26.972623702600448,28.77696261131318,493.26744178145435,570.0716394271421
1.710400017254682E12,2.043478260869565,-6.413043478260869,3.1630434782608696,1.8003722191300655,26.986326812067848,28.786699031197912,493.2663599570227,570.0681054673321
1.7104000172742139E12,2.0652173913043477,-6.434782608695652,3.0760869565217392,1.7940255157977958,27.0117857470257,28.805811262823497,493.2768175931952,570.0677448591882
1.7104000172937456E12,2.0543478260869565,-6.391304347826087,3.1304347826086953,1.7916455020481947,27.030537370507407,28.8221828725556,493.2838133911864,570.0663024266127
1.7104000173132776E12,2.032608695652174,-6.391304347826087,3.1304347826086953,1.7849381905720463,27.060684211335687,28.845622401907733,493.27126422777945,570.0639945344918
1.7104000173328093E12,2.0217391304347827,-6.423913043478261,3.032608695652174,1.7927273264798316,27.090037714247433,28.882765040727264,493.26102295649326,570.0606048179394
1.7104000173523413E12,2.0543478260869565,-6.445652173913043,3.0652173913043477,1.7806830144742747,27.16172661325057,28.942409627724842,493.2577053615696,570.0608211828257
1.710400017371873E12,2.032608695652174,-6.423913043478261,3.043478260869565,1.8072237738637655,27.190286778245785,28.99751055210955,493.28612128330724,570.0634896830904
1.710400017391405E12,2.0217391304347827,-6.456521739130435,3.032608695652174,1.8409766961308356,27.238752512783115,29.07972920891395,493.2988868116006,570.0531041685467
1.7104000174109368E12,2.010869565217391,-6.456521739130435,3.0652173913043477,1.8113347067039858,27.203989887713185,29.01532459441717,493.2856885535346,570.0578641960459
1.7104000174304688E12,2.0217391304347827,-6.456521739130435,3.043478260869565,1.7909964073892126,27.173770925256125,28.964767332645337,493.2941989057301,570.0647878724084
1.7104000174500005E12,2.0,-6.467391304347826,2.9782608695652173,1.78025028470162,27.198220157411118,28.978470442112737,493.270759376378,570.061686642371
1.7104000174695325E12,2.0217391304347827,-6.434782608695652,2.9891304347826084,1.775346013944866,27.268755110353844,29.04410112429871,493.2594362806602,570.064283021007
1.7104000174890642E12,2.032608695652174,-6.445652173913043,3.010869565217391,1.7669077833780986,27.223390605853872,28.99029838923197,493.23361673755846,570.1459968264099
1.710400017508596E12,2.043478260869565,-6.456521739130435,3.0,2.1423008611560896,27.856762749762865,29.999063610918956,493.2314530886952,569.8500096619141
1.710400017528128E12,2.0652173913043477,-6.489130434782608,2.9782608695652173,2.0789780710909453,28.130897060739645,30.20987513183059,493.24003556251955,569.6350150865335
1.7104000175476597E12,2.0217391304347827,-6.467391304347826,3.010869565217391,1.7704417431881123,27.252311378992964,29.022753122181076,493.2443628602461,569.9031633023219
1.7104000175671917E12,1.934782608695652,-6.489130434782608,3.032608695652174,1.8258311540879195,27.381120607986524,29.206951762074443,493.23614099456563,570.1012092949402
1.7104000175867234E12,2.0217391304347827,-6.467391304347826,2.9891304347826084,1.8256147892015921,27.38407759476633,29.209692383967923,493.216091181766,570.1203936481945
1.7104000176062554E12,2.0,-6.4021739130434785,2.9456521739130435,1.8308075464734492,27.400377082869664,29.23118462934311,493.2331118861571,570.1365488930403
1.710400017625787E12,2.043478260869565,-6.445652173913043,2.9891304347826084,1.8383081958661314,27.409608651352965,29.247916847219095,493.2365016027095,570.1402992177367
1.710400017645319E12,2.0217391304347827,-6.478260869565217,2.9891304347826084,1.871844753246874,27.426124504342617,29.297969257589493,493.22597184490826,570.1692921125045
1.7104000176648508E12,1.9891304347826086,-6.532608695652174,3.0,1.8776866051777132,27.437159113545313,29.314845718723028,493.22380819604496,570.1904237497358
1.7104000176843828E12,2.010869565217391,-6.521739130434782,2.967391304347826,1.8986018775226925,27.454756790966606,29.3533586684893,493.2085905323733,570.2303070104489
1.7104000177039146E12,2.0217391304347827,-6.489130434782608,2.967391304347826,1.9482215581204365,27.49492853819472,29.443150096315158,493.2171730061976,570.2812248803646
1.7104000177234465E12,2.010869565217391,-6.434782608695652,2.967391304347826,1.9828399399328163,27.508992255806003,29.49183219573882,493.21190812729697,570.3285366688415
1.7104000177429783E12,2.010869565217391,-6.423913043478261,2.9130434782608696,2.0582791636322932,27.52615720345464,29.584436367086933,493.22979429123336,570.3535628740267
1.7104000177625103E12,2.032608695652174,-6.4021739130434785,2.967391304347826,2.0557549066251406,27.539571826406938,29.595326733032078,493.2018832208971,570.3112274779353
1.710400017782042E12,2.043478260869565,-6.445652173913043,2.9565217391304346,1.9472118553175755,27.501347363155766,29.448559218473342,493.2449398332763,570.1866734250395
1.7104000178015737E12,2.032608695652174,-6.445652173913043,2.934782608695652,1.8640556173390888,27.451294952785368,29.31535057012446,493.26773026796945,570.1179415128162
1.7104000178211057E12,2.0217391304347827,-6.456521739130435,2.967391304347826,1.804699516856613,27.411628056958683,29.216327573815295,493.2461659009655,570.0896698343361
1.7104000178406375E12,2.032608695652174,-6.489130434782608,2.9565217391304346,1.7814763523908084,27.3835727433649,29.16504909575571,493.23188581846784,570.0796449279362
1.7104000178601694E12,2.0217391304347827,-6.489130434782608,2.9456521739130435,1.7695762836428028,27.395040082340252,29.164616365983054,493.2194808983184,570.0686824403623
1.7104000178797012E12,2.0869565217391304,-6.456521739130435,2.967391304347826,1.765393229173807,27.39814131237761,29.163534541551417,493.21176388403944,570.0838279824052
1.7104000178992332E12,2.010869565217391,-6.445652173913043,2.9456521739130435,1.763301701939309,27.41047411089827,29.17377581283758,493.21969726320475,570.0793564414212
1.710400017918765E12,2.043478260869565,-6.4021739130434785,2.8478260869565215,1.7662586887191165,27.41920082798014,29.185459516699257,493.22337546627233,570.0882995233893
1.7104000179382969E12,1.967391304347826,-6.423913043478261,3.010869565217391,1.78436121754184,27.424754193395877,29.209115410937716,493.24155011672383,570.0849819284656
1.7104000179578286E12,2.0543478260869565,-6.489130434782608,2.9456521739130435,1.7868854745489926,27.418335368434832,29.205220842983824,493.23051550752115,570.084549198693
1.7104000179773606E12,2.043478260869565,-6.456521739130435,2.934782608695652,1.7838563661404094,27.41667657097299,29.200532937113397,493.2043353562755,570.083900104034
1.7104000179968923E12,2.0543478260869565,-6.456521739130435,2.9456521739130435,1.7749132841722113,27.416748692601765,29.191661976773975,493.2251785069917,570.0782746169895
1.7104000180164243E12,2.0543478260869565,-6.489130434782608,2.967391304347826,1.7875345692079747,27.398574042150265,29.18610861135824,493.2412616302087,570.0726491299449
1.710400018035956E12,2.043478260869565,-6.456521739130435,2.902173913043478,1.776716324891606,27.40484862385376,29.181564948745365,493.23549189990666,570.0840443472915
1.710400018055488E12,2.010869565217391,-6.434782608695652,2.9130434782608696,1.7740478246269018,27.392227338817996,29.166275163444897,493.2359246296793,570.073298224604
1.7104000180750198E12,2.032608695652174,-6.456521739130435,2.891304347826087,1.7668356617493228,27.39814131237761,29.164976974126933,493.22467365559027,570.0673121294155
1.7104000180945518E12,2.032608695652174,-6.445652173913043,2.902173913043478,1.7649604994011523,27.39114551438636,29.15610601378751,493.22748639911254,570.0660139400976
1.7104000181140835E12,2.0543478260869565,-6.445652173913043,2.880434782608696,1.7568828769782636,27.395977663514337,29.1528605404926,493.2034698967302,570.0600278449092
1.7104000181336152E12,2.032608695652174,-6.434782608695652,2.9456521739130435,1.7683502159536144,27.38133697287285,29.149687188826466,493.22539487187805,570.0625521019164
1.7104000181531472E12,2.032608695652174,-6.467391304347826,2.934782608695652,1.7747690409146597,27.439539127294914,29.214308168209573,493.19914259900366,570.0663745482415
1.710400018172679E12,2.0652173913043477,-6.456521739130435,2.869565217391304,1.7985691784106708,27.45886772380683,29.2574369022175,493.19142558472464,570.063633926348
1.710400018192211E12,2.032608695652174,-6.456521739130435,2.9130434782608696,1.825326302686489,27.46535867039665,29.29068497308314,493.1835643271881,570.0559890336978
1.7104000182117427E12,2.043478260869565,-6.478260869565217,2.902173913043478,1.7969825025776034,27.41133957044358,29.208322073021183,493.19798865294325,570.0615423991135
1.7104000182312747E12,2.0543478260869565,-6.456521739130435,2.902173913043478,1.7717399325060765,27.35364226742295,29.125382199929025,493.2145045059329,570.0528156820317
1.7104000182508064E12,2.0543478260869565,-6.456521739130435,2.891304347826087,1.755368322773972,27.35241619973376,29.107784522507732,493.2256112367644,570.062047250515
1.7104000182703384E12,2.0652173913043477,-6.467391304347826,2.9239130434782608,1.7603447151595015,27.335900346744104,29.096245061903605,493.2220051553256,570.0602442097955
1.71040001828987E12,2.010869565217391,-6.467391304347826,2.9130434782608696,1.7493822275855815,27.284838233570845,29.034220461156426,493.22539487187805,570.1793891405332
1.710400018309402E12,2.043478260869565,-6.5,2.880434782608696,2.024886849509102,27.613929225674777,29.63881607518388,493.2085184107445,570.014086367379
1.7104000183289338E12,2.0869565217391304,-6.456521739130435,2.9456521739130435,2.0582070420035175,27.956146354215907,30.014353396219423,493.230876115665,569.6363853974802
1.7104000183484658E12,2.108695652173913,-6.445652173913043,2.8369565217391304,1.7752017706873144,27.23471370157167,29.009915472258985,493.20447959953304,569.9255931288711
1.7104000183679976E12,2.010869565217391,-6.434782608695652,3.0,1.8121280446205195,27.369509025753622,29.18163707037414,493.1796697592342,570.0976032135014
1.7104000183875295E12,2.0652173913043477,-6.467391304347826,2.8478260869565215,1.8087383280680571,27.361792011474613,29.17053033954267,493.1966183419965,570.1142633097486
1.7104000184070613E12,2.0652173913043477,-6.4021739130434785,2.934782608695652,1.8213596131038206,27.37996666192611,29.20132627502993,493.1923631658987,570.1228457835729
1.7104000184265933E12,2.0978260869565215,-6.413043478260869,2.8152173913043477,1.8222971942779058,27.39201097393167,29.214308168209573,493.18702616536933,570.1375585958432
1.710400018446125E12,2.0543478260869565,-6.456521739130435,2.869565217391304,1.8433567098804369,27.394679474196376,29.23803618407681,493.1787321780601,570.1442659073193
1.7104000184656567E12,2.043478260869565,-6.532608695652174,2.967391304347826,1.865714414800932,27.41270988139032,29.278424296191254,493.1555090135943,570.1716000046254
1.7104000184851887E12,2.0869565217391304,-6.554347826086956,2.858695652173913,1.8759556860870943,27.44249611407472,29.318451800161817,493.18522312464995,570.2093917381039
1.7104000185047205E12,2.0760869565217392,-6.521739130434782,2.869565217391304,1.934590570281812,27.455261642368036,29.38985221264985,493.2152257222207,570.272426041654
1.7104000185242524E12,2.0652173913043477,-6.489130434782608,2.858695652173913,1.9833447913342468,27.477186617515876,29.460531408850123,493.2321021833542,570.3160596270633
1.7104000185437842E12,2.043478260869565,-6.467391304347826,2.8369565217391304,2.043277864846929,27.505241931109662,29.54851979595659,493.20621051862366,570.3233439115696
1.7104000185633162E12,2.043478260869565,-6.434782608695652,2.8478260869565215,2.038734202234054,27.521325054326663,29.560059256560717,493.203542018359,570.284614596917
1.710400018582848E12,2.0543478260869565,-6.445652173913043,2.858695652173913,1.9852199536824173,27.504881322965783,29.4901012766482,493.2106820596078,570.1947510474624
1.71040001860238E12,2.043478260869565,-6.445652173913043,2.8260869565217392,1.8530931297651685,27.413070489534203,29.26616361929937,493.19301226055774,570.099334132592
1.7104000186219116E12,2.0217391304347827,-6.445652173913043,2.8369565217391304,1.797126745835155,27.376144215600995,29.17327096143615,493.19950320714753,570.0626242235452
1.7104000186414436E12,2.0543478260869565,-6.445652173913043,2.8478260869565215,1.7776539060656913,27.344771307083526,29.122425213149217,493.1800303673781,570.0660860617264
1.7104000186609753E12,2.0652173913043477,-6.489130434782608,2.8260869565217392,1.7741199462556776,27.3377033874635,29.111823333719176,493.18219401624134,570.0487768708202
1.7104000186805073E12,2.0760869565217392,-6.521739130434782,2.782608695652174,1.763950796598291,27.33993915795555,29.10388995455384,493.21883180365944,570.047550803131
1.710400018700039E12,2.032608695652174,-6.434782608695652,2.880434782608696,1.7672683915219776,27.350613159014365,29.117881550536342,493.17584731290907,570.0463968570706
1.710400018719571E12,2.010869565217391,-6.456521739130435,2.7717391304347827,1.7634459451968605,27.350252550870486,29.113698496067347,493.18991103052036,570.0541859929783
1.7104000187391028E12,2.010869565217391,-6.456521739130435,2.8043478260869565,1.772605392051386,27.350757402271917,29.123362794323302,493.19625773385263,570.0500750601382
1.7104000187586345E12,2.0217391304347827,-6.467391304347826,2.869565217391304,1.777726027694467,27.346141618030266,29.123867645724733,493.1817612864687,570.0402665186247
1.7104000187781665E12,2.032608695652174,-6.478260869565217,2.858695652173913,1.766114445461565,27.352848929506415,29.11896337496798,493.16849090677397,570.039184694193
1.7104000187976982E12,2.0543478260869565,-6.510869565217391,2.8478260869565215,1.7690714322413723,27.335900346744104,29.104971778985476,493.17981400249175,570.0373095318448
1.7104000188172302E12,2.0217391304347827,-6.489130434782608,2.8478260869565215,1.7690714322413723,27.316715993489744,29.085787425731116,493.1829152325291,570.038535599534
1.710400018836762E12,2.0217391304347827,-6.478260869565217,2.8152173913043477,1.7645277696284973,27.322341480534256,29.086869250162753,493.1722412314703,570.0243276386652
1.710400018856294E12,2.010869565217391,-6.456521739130435,2.8478260869565215,1.7621477558788963,27.314624466255246,29.076772222134142,493.1838528137032,570.0286549363917
1.7104000188758257E12,2.010869565217391,-6.478260869565217,2.8478260869565215,1.759479255614192,27.29623345091742,29.05571270653161,493.1901273954067,570.0235343007487
1.7104000188953577E12,2.010869565217391,-6.478260869565217,2.8478260869565215,1.7630853370529815,27.30020014050009,29.06328547755307,493.1801746106356,570.0179088137041
1.7104000189148894E12,2.0217391304347827,-6.478260869565217,2.8478260869565215,1.7672683915219776,27.274164232512028,29.041432624034005,493.1703660691221,570.025048854953
1.7104000189344214E12,2.010869565217391,-6.478260869565217,2.880434782608696,1.7607774449321563,27.286208544517585,29.04698598944974,493.1526241484433,570.0078117856756
1.7104000189539531E12,2.010869565217391,-6.521739130434782,2.891304347826087,1.759479255614192,27.280078206071643,29.039557461685835,493.1733230559019,570.0119948401446
1.710400018973485E12,2.010869565217391,-6.467391304347826,2.869565217391304,1.7643835263709458,27.308277762922977,29.072661289293922,493.16784181211494,570.006080866585
1.7104000189930168E12,2.010869565217391,-6.423913043478261,2.869565217391304,1.7872460826928716,27.330779711101023,29.118025793793894,493.1639472441611,570.0214427735142
1.7104000190125488E12,1.9891304347826086,-6.434782608695652,2.9130434782608696,1.8090268145831603,27.362657471019922,29.17168428560308,493.14851321560303,570.0019699337447
1.7104000190320806E12,2.010869565217391,-6.467391304347826,2.9239130434782608,1.82496569454261,27.338424603751257,29.163390298293866,493.1775782319997,570.0057923800698
1.7104000190516125E12,2.0217391304347827,-6.456521739130435,2.934782608695652,1.7715235676197492,27.273515137853046,29.045038705472795,493.1689236365466,570.0166106243862
1.7104000190711443E12,2.010869565217391,-6.478260869565217,2.9130434782608696,1.7675568780370807,27.254691392742565,29.022248270779645,493.1769291373407,570.0069463261302
1.710400019090676E12,2.043478260869565,-6.478260869565217,2.9239130434782608,1.7718120541348523,27.237382201836375,29.009194255971227,493.1646684604488,570.0209379221127
1.710400019110208E12,2.032608695652174,-6.445652173913043,2.934782608695652,1.7697205269003544,27.21588995646119,28.985610483361544,493.13538707916587,570.0269961389299
1.7104000191297397E12,2.043478260869565,-6.489130434782608,2.934782608695652,1.9652422625115231,27.40261285336171,29.367855115873233,493.16697635256963,570.1030123356596
1.7104000191492717E12,2.0217391304347827,-6.5,2.967391304347826,2.247237831024865,28.08286405597497,30.330101886999834,493.17541458313644,569.5934730283586
1.7104000191688035E12,2.043478260869565,-6.467391304347826,2.9782608695652173,1.780610892845499,27.128262177498602,28.9088730703441,493.1702218258646,569.8358017010453
1.7104000191883354E12,1.9782608695652173,-6.391304347826087,2.9130434782608696,1.8139310853399142,27.20766809078075,29.021599176120663,493.170726677266,570.0312513150277
1.7104000192078672E12,2.0869565217391304,-6.423913043478261,2.9130434782608696,1.82496569454261,27.227501538694092,29.0524672332367,493.19625773385263,570.0584411690761
1.7104000192273992E12,1.967391304347826,-6.380434782608695,2.934782608695652,1.8314566411324313,27.23471370157167,29.0661703427041,493.18760313839954,570.0829625228599
1.710400019246931E12,2.0869565217391304,-6.413043478260869,2.934782608695652,1.8486937104098453,27.23370399876881,29.082397709178654,493.1800303673781,570.0815200902844
1.710400019266463E12,2.0543478260869565,-6.467391304347826,2.902173913043478,1.8528767648788411,27.23009791733002,29.08297468220886,493.1726018396142,570.1195281886493
1.7104000192859946E12,2.0217391304347827,-6.554347826086956,3.0652173913043477,1.8716283883605467,27.2417816211917,29.113410009552243,493.18962254400526,570.1255142838377
1.7104000193055266E12,2.043478260869565,-6.554347826086956,2.9239130434782608,1.908771027180079,27.253970176454803,29.162741203634884,493.2193366550609,570.1560217328098
1.7104000193250583E12,2.0217391304347827,-6.467391304347826,2.9130434782608696,1.9405766654702028,27.25728777137849,29.197864436848693,493.23246279149805,570.190063141592
1.7104000193445903E12,2.0217391304347827,-6.369565217391304,2.9239130434782608,1.9713726009574655,27.284621868684518,29.255994469641983,493.22424092581764,570.2472555932112
1.710400019364122E12,2.032608695652174,-6.434782608695652,2.934782608695652,2.039166932006709,27.316355385345865,29.355522317352573,493.1984935043447,570.2807921505919
1.710400019383654E12,2.032608695652174,-6.445652173913043,2.9239130434782608,2.0847478013930085,27.311234749702784,29.39598255109579,493.1907043684369,570.2673775276396
1.7104000194031858E12,2.0543478260869565,-6.423913043478261,2.967391304347826,2.030007485152183,27.311090506445233,29.341097991597415,493.21436026267537,570.1751339644354
1.7104000194227175E12,2.0217391304347827,-6.434782608695652,2.9782608695652173,1.9420912196744944,27.250868946417445,29.19296016609194,493.24169435998135,570.0867128475562
1.7104000194422495E12,2.0543478260869565,-6.489130434782608,2.9130434782608696,1.8461694534026927,27.159635086016074,29.005804539418765,493.22236576346944,570.042718654003
1.7104000194617812E12,2.0652173913043477,-6.478260869565217,2.9782608695652173,1.800516462387617,27.14831199029827,28.948828452685888,493.2192645334321,570.0212985302566
1.7104000194813132E12,2.0543478260869565,-6.489130434782608,2.9456521739130435,1.8047716384853887,27.103596580457282,28.90836821894267,493.2190481685458,570.01343727272
1.710400019500845E12,2.0652173913043477,-6.521739130434782,2.934782608695652,1.796766137691276,27.10792387818383,28.904690015875104,493.2153699654782,570.0095427047662
1.710400019520377E12,2.0,-6.467391304347826,3.0652173913043477,1.7954679483733116,27.08736921398273,28.88283716235604,493.2540992801308,570.0124996915459
