Shimmer_6D72_TimestampSync_Unix_CAL,Shimmer_6D72_Accel_LN_X_CAL,Shimmer_6D72_Accel_LN_Y_CAL,Shimmer_6D72_Accel_LN_Z_CAL,Shimmer_6D72_ECG_LA-RA_24BIT_CAL,Shimmer_6D72_ECG_LL-LA_24BIT_CAL,Shimmer_6D72_ECG_LL-RA_24BIT_CAL,Shimmer_6D72_ECG_RESP_24BIT_CAL,Shimmer_6D72_ECG_Vx-RL_24BIT_CAL
ms,m/(s^2),m/(s^2),m/(s^2),mV,mV,mV,mV,mV
1.7089518828393809E12,2.5217391304347827,-6.478260869565217,2.130434782608696,-1.2542672460397777,6.63180013082029,5.377532884780512,477.89435599975064,595.8194936298721
1.7089518828589126E12,2.5543478260869565,-6.467391304347826,2.152173913043478,-1.2575127193346882,6.653436619453028,5.39592390011834,477.8929856888039,595.8135075346837
1.708951882878444E12,2.543478260869565,-6.521739130434782,2.1630434782608696,-1.2622006252051146,6.651561457104857,5.389360831899743,477.8929135671751,595.8318985500215
1.7089518828979758E12,2.5760869565217392,-6.5,2.0869565217391304,-1.2576569625922398,6.6768040271763835,5.419147064584144,477.8929856888039,595.8376682803236
1.7089518829175073E12,2.5652173913043477,-6.478260869565217,2.032608695652174,-1.2384726093378795,6.658268768581006,5.419796159243126,477.8913268913421,595.8692575537274
1.708951882937039E12,2.5543478260869565,-6.467391304347826,2.119565217391304,-1.238616852595431,6.6887762175531655,5.4501593649577345,477.8906056750543,595.86615632369
1.7089518829565708E12,2.5869565217391304,-6.510869565217391,2.1847826086956523,-1.224192526840273,6.667428215435532,5.443235688595259,477.8901729452817,595.8922643533068
1.7089518829761023E12,2.5978260869565215,-6.532608695652174,2.0652173913043477,-1.2025560382075355,6.722312774933908,5.5197567367263725,477.88901899922126,595.9144778149698
1.708951882995634E12,2.619565217391304,-6.521739130434782,2.0543478260869565,-1.1750055760151836,6.742290466104802,5.567284890089619,477.88901899922126,595.9233487753093
1.7089518830151658E12,2.5652173913043477,-6.478260869565217,2.0217391304347827,-1.1690916024555686,6.803882337079328,5.634790734623759,477.88873051270616,595.9254403025437
1.7089518830346973E12,2.532608695652174,-6.434782608695652,2.0652173913043477,-1.1787559007115247,6.773447009735944,5.594691109024419,477.88952385062265,595.907337773721
1.708951883054229E12,2.543478260869565,-6.434782608695652,2.1630434782608696,-1.2328471222933677,6.772870036705737,5.540022914412369,477.88844202619106,595.8706278646741
1.7089518830737605E12,2.5978260869565215,-6.456521739130435,2.0652173913043477,-1.2598927330842893,6.768831225494293,5.508938492410004,477.8869274719867,595.8466113622918
1.7089518830932922E12,2.5869565217391304,-6.445652173913043,2.032608695652174,-1.292419587662171,6.775177928826563,5.482758341164391,477.8873602017594,595.8444477134285
1.708951883112824E12,2.608695652173913,-6.489130434782608,2.0978260869565215,-1.298622047736889,6.7443098717105245,5.4456878239736355,477.8876486882745,595.8480537948673
1.7089518831323555E12,2.543478260869565,-6.478260869565217,2.130434782608696,-1.2956650609570814,6.7145236390261225,5.418858578069041,477.8885862694486,595.8639926748267
1.7089518831518872E12,2.5652173913043477,-6.510869565217391,2.010869565217391,-1.3017953994030238,6.771211239243894,5.46941583984087,477.88750444501693,595.8489192544126
1.708951883171419E12,2.5760869565217392,-6.5,2.0652173913043477,-1.3094402920532575,6.779721591439437,5.47028129938618,477.8888026343349,595.8528859439953
1.7089518831909504E12,2.5869565217391304,-6.489130434782608,2.043478260869565,-1.3086469541367238,6.776476118144527,5.467829164007803,477.8891632424788,595.8654351074023
1.7089518832104822E12,2.5652173913043477,-6.489130434782608,2.0760869565217392,-1.3118924274316344,6.803305364049121,5.491412936617486,477.8882256613047,595.8402646589595
1.7089518832300137E12,2.608695652173913,-6.521739130434782,2.0869565217391304,-1.3142003195524599,6.794145917194595,5.479945597642136,477.8869274719867,595.8519483628212
1.7089518832495454E12,2.5978260869565215,-6.489130434782608,2.108695652173913,-1.3242973475810704,6.798978066322573,5.474680718741503,477.88836990456224,595.8378125235811
1.7089518832690771E12,2.608695652173913,-6.510869565217391,2.108695652173913,-1.3267494829594473,6.828908542264526,5.502159059305079,477.8885862694486,595.8372355505509
1.7089518832886086E12,2.619565217391304,-6.543478260869565,2.0760869565217392,-1.3415344168584844,6.841818313815393,5.500283896956908,477.8903171885392,595.8490634976702
1.7089518833081404E12,2.5869565217391304,-6.543478260869565,2.0543478260869565,-1.358194513105692,6.850184422753385,5.4919899096476925,477.88728808013065,595.8467556055493
1.708951883327672E12,2.5978260869565215,-6.510869565217391,2.0543478260869565,-1.34795324181953,6.871748789757347,5.523795547937817,477.88901899922126,595.8518762411924
1.7089518833472036E12,2.5869565217391304,-6.489130434782608,2.0543478260869565,-1.3488187013648394,6.8979289410029585,5.549110239638119,477.88865839107734,595.843654375512
1.7089518833667354E12,2.608695652173913,-6.5,2.0652173913043477,-1.3386495517074528,6.92584001133919,5.587190459631737,477.8904614317968,595.8545447414571
1.7089518833862668E12,2.5978260869565215,-6.478260869565217,2.0543478260869565,-1.321340360801263,6.929806700921858,5.608466340120595,477.88937960736513,595.8714933242194
1.7089518834057986E12,2.608695652173913,-6.489130434782608,2.0978260869565215,-1.2992711423958712,6.948269837888461,5.6489986954925895,477.89024506691044,595.8460343892616
1.7089518834253303E12,2.5760869565217392,-6.5,2.0760869565217392,-1.3386495517074528,6.927426687172257,5.588777135464804,477.889740215509,595.8350719016877
1.7089518834448618E12,2.5760869565217392,-6.478260869565217,2.0869565217391304,-1.3638200001502039,6.9376679584584195,5.573847958308216,477.89226447251616,595.830456117446
1.7089518834643936E12,2.5869565217391304,-6.445652173913043,2.0760869565217392,-1.3788934205643442,6.922161808271624,5.54326838770728,477.89038931016796,595.8213687922203
1.708951883483925E12,2.619565217391304,-6.5,2.119565217391304,-1.3928128949180718,6.954977149364609,5.562164254446537,477.8921923508874,595.8152384537743
1.7089518835034568E12,2.630434782608696,-6.554347826086956,2.1739130434782608,-1.4445241027503137,7.196945213907386,5.752421111157073,477.8933462969478,595.8712048377043
1.7089518835229885E12,2.619565217391304,-6.532608695652174,2.0652173913043477,-1.1191113137139457,7.072174796125269,5.9530634824113235,477.89053355342554,595.8294464146431
1.70895188354252E12,2.5978260869565215,-6.489130434782608,2.0760869565217392,-0.9253204971933958,7.025584223936108,6.100263726742712,477.8918317427435,595.4526830259184
1.7089518835620518E12,2.6630434782608696,-6.489130434782608,2.0760869565217392,-1.4429374269172464,6.864176018735888,5.421238591818642,477.8951493376672,595.6038499598325
1.7089518835815835E12,2.652173913043478,-6.445652173913043,2.0978260869565215,-1.4349319261231335,6.961179609439327,5.5262476833161935,477.89522145929595,595.7731194225693
1.708951883601115E12,2.5869565217391304,-6.5,2.1956521739130435,-1.415098478209791,7.001928329697649,5.586829851487858,477.8958705539549,595.8176184675239
1.7089518836206467E12,2.5869565217391304,-6.554347826086956,2.130434782608696,-1.4153148430961184,7.02572846719366,5.610413624097541,477.8977457163031,595.8266336711209
1.7089518836401782E12,2.608695652173913,-6.543478260869565,2.1847826086956523,-1.4001693010532024,7.029478791890002,5.629309490836799,477.897457229788,595.822739103167
1.70895188365971E12,2.652173913043478,-6.510869565217391,2.1956521739130435,-1.3876201376462147,7.013323547044223,5.6257034093980085,477.89788995956064,595.8308888472186
1.7089518836792417E12,2.652173913043478,-6.478260869565217,2.0652173913043477,-1.3778115961327073,7.051475888666617,5.67366429253391,477.8969523783866,595.8449525648299
1.7089518836987732E12,2.641304347826087,-6.5,2.1956521739130435,-1.3681472978767513,7.064241416959932,5.696094119083181,477.8983226893333,595.861973269221
1.708951883718305E12,2.652173913043478,-6.5,2.1956521739130435,-1.3537950937503689,7.081622729494898,5.727827635744529,477.89918814887864,595.8745945542568
1.7089518837378367E12,2.641304347826087,-6.478260869565217,2.141304347826087,-1.3295622264817033,7.112490786610936,5.782928560129233,477.9015681626282,595.9019286515628
1.7089518837573682E12,2.652173913043478,-6.445652173913043,2.1739130434782608,-1.3242973475810704,7.129655734259574,5.8053583866785035,477.90236150054477,595.9133238689094
1.7089518837769E12,2.630434782608696,-6.434782608695652,2.1847826086956523,-1.3267494829594473,7.149344938915365,5.822595455955918,477.9034433249764,595.9008468271312
1.7089518837964314E12,2.619565217391304,-6.4021739130434785,2.1956521739130435,-1.35617510749997,7.147253411680867,5.791078304180897,477.90654455501374,595.8706999863028
1.7089518838159631E12,2.6630434782608696,-6.456521739130435,2.2391304347826084,-1.399952936166875,7.127347842138748,5.727394905971874,477.90517424406704,595.8497125923292
1.7089518838354949E12,2.6630434782608696,-6.478260869565217,2.25,-1.4262773306700387,7.1016004206657914,5.675323089995753,477.9067609199001,595.8473325785795
1.7089518838550264E12,2.6739130434782608,-6.532608695652174,2.1847826086956523,-1.4441634946064348,7.099004042029863,5.6548405474234285,477.90885244713456,595.8333409825971
1.708951883874558E12,2.619565217391304,-6.532608695652174,2.217391304347826,-1.450293833052377,7.089700351917786,5.6394065188654094,477.9080591092181,595.8544004981995
1.7089518838940898E12,2.608695652173913,-6.456521739130435,2.1847826086956523,-1.452313238658099,7.089195500516356,5.636882261858257,477.9111603392554,595.849135619299
1.7089518839136213E12,2.5760869565217392,-6.413043478260869,2.152173913043478,-1.4505101979387043,7.0912870277508535,5.6407768298121495,477.91137670414173,595.8484144030111
1.708951883933153E12,2.641304347826087,-6.423913043478261,2.2065217391304346,-1.4606793475960909,7.134415761758776,5.673736414162685,477.9115209473993,595.8296627795295
1.7089518839526846E12,2.652173913043478,-6.456521739130435,2.25,-1.447192603015018,7.103764069529065,5.656571466514047,477.9140452044064,595.847188335322
1.7089518839722163E12,2.630434782608696,-6.478260869565217,2.293478260869565,-1.4490677653631885,7.106865299566424,5.657797534203236,477.91527127209565,595.8424283078227
1.708951883991748E12,2.630434782608696,-6.510869565217391,2.293478260869565,-1.4648624020650867,7.102393758582325,5.637531356517239,477.9157040018683,595.8315379418776
1.7089518840112795E12,2.619565217391304,-6.510869565217391,2.3152173913043477,-1.467458780701015,7.094820987560867,5.627362206859852,477.9185888670193,595.8408416319897
1.7089518840308113E12,2.619565217391304,-6.521739130434782,2.1739130434782608,-1.4687569700189793,7.116890205966259,5.64813323594728,477.9189494751632,595.8302397525597
1.708951884050343E12,2.619565217391304,-6.489130434782608,2.1739130434782608,-1.4686127267614277,7.1142938273303304,5.645681100568903,477.9203197861099,595.826273062977
1.7089518840698745E12,2.619565217391304,-6.445652173913043,2.2391304347826084,-1.4766182275555406,7.096263420136383,5.619645192580842,477.92291616474586,595.8379567668387
1.7089518840894062E12,2.641304347826087,-6.467391304347826,2.25,-1.4761854977828859,7.133478180584691,5.657292682801805,477.9214016105416,595.8296627795295
1.7089518841089377E12,2.5978260869565215,-6.467391304347826,2.217391304347826,-1.4649345236938625,7.131314531721417,5.666380008027555,477.9242864756926,595.8413464833911
1.7089518841284695E12,2.641304347826087,-6.456521739130435,2.2065217391304346,-1.4412786294554032,7.2123071208366305,5.7710284913812275,477.925440421753,595.8165366430923
1.7089518841480012E12,2.5543478260869565,-6.467391304347826,2.217391304347826,-1.4429374269172464,7.164634724215833,5.7216972972985864,477.92702709758606,595.8126420751383
1.7089518841675327E12,2.5978260869565215,-6.467391304347826,2.1630434782608696,-1.4676030239585667,7.151436466149862,5.683833442191296,477.92630588129833,595.826273062977
1.7089518841870645E12,2.5978260869565215,-6.467391304347826,2.2391304347826084,-1.4859940392963935,7.1649953323597115,5.679001293063318,477.9281089220177,595.8192772649858
1.708951884206596E12,2.5652173913043477,-6.478260869565217,2.217391304347826,-1.4946486347494883,7.149128574029038,5.6544799392795495,477.9281089220177,595.82785973881
1.7089518842261277E12,2.5978260869565215,-6.467391304347826,2.25,-1.5321518817128996,7.19586338947575,5.663711507762851,477.93070530065364,595.8415628482775
1.7089518842456594E12,2.630434782608696,-6.510869565217391,2.2282608695652173,-1.4941437833480578,7.428744128792778,5.9346003454447205,477.9323640981155,595.9041644220548
1.708951884265191E12,2.5869565217391304,-6.489130434782608,2.1847826086956523,-1.1362762613625839,7.566712804640866,6.430436543278282,477.93258046300184,595.5038893823493
1.7089518842847227E12,2.630434782608696,-6.413043478260869,2.2065217391304346,-1.5146263259203823,7.0388546036308535,5.524228277710471,477.9363307876982,595.5519223871139
1.7089518843042544E12,2.652173913043478,-6.4021739130434785,2.25,-1.5272476109561457,7.1153035301331915,5.588055919177046,477.9369077607284,595.7144845383746
1.708951884323786E12,2.5652173913043477,-6.445652173913043,2.282608695652174,-1.4917637695984567,7.206248904019464,5.7144851344210075,477.9371241256147,595.8461065108903
1.7089518843433176E12,2.543478260869565,-6.478260869565217,2.2282608695652173,-1.4749594300936975,7.177400252509148,5.702440822415451,477.9371241256147,595.870988472818
1.708951884362849E12,2.543478260869565,-6.489130434782608,2.1847826086956523,-1.4665933211557056,7.193483375726149,5.726890054570443,477.9407302070535,595.8770466896351
1.7089518843823809E12,2.619565217391304,-6.489130434782608,2.25,-1.4626266315730372,7.2250005275011695,5.762373895928133,477.940874450311,595.8714933242194
1.7089518844019126E12,2.5760869565217392,-6.478260869565217,2.25,-1.448562913961758,7.238631515339794,5.790068601378036,477.9414514233412,595.885124312058
1.708951884421444E12,2.5652173913043477,-6.543478260869565,2.282608695652174,-1.431686452828223,7.252118259920867,5.820431807092644,477.942172639629,595.8951492184578
1.7089518844409758E12,2.543478260869565,-6.58695652173913,2.3152173913043477,-1.423392465519007,7.268129261509093,5.8447367959900856,477.94440841012107,595.9069771655771
1.7089518844605076E12,2.543478260869565,-6.521739130434782,2.141304347826087,-1.3983662603338076,7.287818466164884,5.889452205831076,477.9439035587196,595.9229160455366
1.708951884480039E12,2.5978260869565215,-6.445652173913043,2.152173913043478,-1.382355258745582,7.34133271471652,5.958977455970938,477.9445526533786,595.9114487065613
1.7089518844995708E12,2.5760869565217392,-6.3478260869565215,2.3152173913043477,-1.369301243937164,7.3828026512626,6.013501407325436,477.9455623561815,595.9160644908029
1.7089518845191023E12,2.5869565217391304,-6.358695652173913,2.260869565217391,-1.3903607595396947,7.40746824830392,6.017107488764226,477.945706599439,595.8971686240636
1.708951884538634E12,2.608695652173913,-6.456521739130435,2.3152173913043477,-1.4362301154410977,7.384461448724443,5.948231333283346,477.9495290457641,595.8796430682711
1.7089518845581658E12,2.5869565217391304,-6.58695652173913,2.4347826086956523,-1.4569290228997498,7.338736336080592,5.881807313180842,477.9498175322792,595.868752702326
1.7089518845776973E12,2.5760869565217392,-6.5978260869565215,2.2282608695652173,-1.4724351730865448,7.346164863844498,5.873729690757953,477.94945692413535,595.8678151211518
1.708951884597229E12,2.641304347826087,-6.521739130434782,2.1739130434782608,-1.479575214335348,7.315224685099684,5.835649470764336,477.95154845136983,595.8666611750914
1.7089518846167607E12,2.5652173913043477,-6.478260869565217,2.369565217391304,-1.4915474047121293,7.3302259838850485,5.838678579172919,477.95133208648355,595.8678872427806
1.7089518846362922E12,2.5869565217391304,-6.434782608695652,2.293478260869565,-1.4983989594458293,7.345732134071843,5.847333174626014,477.9537842218619,595.87322424331
1.708951884655824E12,2.630434782608696,-6.445652173913043,2.293478260869565,-1.4831091741453617,7.339241187482022,5.85613201333666,477.95443331652086,595.8692575537274
1.7089518846753555E12,2.5760869565217392,-6.434782608695652,2.25,-1.4862104041827209,7.349915188540839,5.863704784358118,477.95457755977844,595.8695460402424
1.7089518846948872E12,2.5652173913043477,-6.380434782608695,2.3043478260869565,-1.487869201644564,7.361598892402517,5.873729690757953,477.95630847886906,595.8673823913792
1.708951884714419E12,2.630434782608696,-6.4021739130434785,2.380434782608696,-1.4941437833480578,7.359867973311898,5.86572418996384,477.9579672763309,595.8814461089905
1.7089518847339504E12,2.619565217391304,-6.456521739130435,2.2717391304347827,-1.4894558774776314,7.368811055280097,5.8793551778024655,477.95753454655824,595.8831770280811
1.7089518847534822E12,2.5652173913043477,-6.456521739130435,2.152173913043478,-1.4955862159235735,7.3456600124430675,5.850073796519494,477.95840000610355,595.8770466896351
1.708951884773014E12,2.543478260869565,-6.5,2.282608695652174,-1.493711053575403,7.38229779986117,5.888586746285767,477.9590491007625,595.8733684865676
1.7089518847925454E12,2.5760869565217392,-6.478260869565217,2.3369565217391304,-1.4821715929712764,7.389942692511403,5.907771099540127,477.9591933440201,595.8714933242194
1.7089518848120771E12,2.641304347826087,-6.391304347826087,2.1630434782608696,-1.4373119398727345,7.403140950577373,5.965829010704638,477.9586163709899,595.8657235939173
1.7089518848316086E12,2.543478260869565,-6.293478260869565,2.0978260869565215,-1.4748873084649217,7.360084338198226,5.8851970297333045,477.95984243867906,595.878705487097
1.7089518848511404E12,2.5760869565217392,-6.304347826086956,2.25,-1.4919080128560083,7.320850172144196,5.828942159288188,477.95897697913375,595.8891631232694
1.708951884870672E12,2.5978260869565215,-6.369565217391304,2.282608695652174,-1.5045292978917717,7.317821063735612,5.81329176584384,477.95897697913375,595.8724309053935
1.7089518848902036E12,2.5978260869565215,-6.434782608695652,2.1630434782608696,-1.5071256765277001,7.310681022486809,5.803555345959109,477.95840000610355,595.8698345267576
1.7089518849097354E12,2.5869565217391304,-6.5,2.0978260869565215,-1.527824583986352,7.3429193905495875,5.815094806563236,477.9594818305352,595.8884419069817
1.7089518849292668E12,2.608695652173913,-6.532608695652174,2.152173913043478,-1.4643575506636561,7.560870952710028,6.096513402046371,477.9580393979597,595.9394318985262
1.7089518849487986E12,2.641304347826087,-6.510869565217391,2.152173913043478,-1.2029166463514145,7.734539834802131,6.531623188450717,477.9563806004978,595.5230016139748
1.7089518849683303E12,2.630434782608696,-6.478260869565217,2.0869565217391304,-1.518232407359172,7.128141180055282,5.6099087726961105,477.95688545189927,595.6202215695646
1.7089518849878618E12,2.630434782608696,-6.467391304347826,2.119565217391304,-1.5081353793305612,7.2476467189367675,5.7395113396062065,477.95688545189927,595.8466113622918
1.7089518850073936E12,2.543478260869565,-6.467391304347826,2.2282608695652173,-1.5066208251262696,7.279019627454237,5.7723988023279675,477.957606668187,595.8749551624006
1.7089518850269253E12,2.619565217391304,-6.445652173913043,2.152173913043478,-1.4891673909625283,7.262431652835805,5.773264261873277,477.95601999235396,595.8869994744063
1.7089518850464568E12,2.5978260869565215,-6.434782608695652,2.0652173913043477,-1.504457176262996,7.289837871770605,5.78538069550761,477.9559478707252,595.8820952036494
1.7089518850659885E12,2.619565217391304,-6.423913043478261,2.119565217391304,-1.4890952693337525,7.2805341816585285,5.791438912324776,477.95601999235396,595.8854127985732
1.70895188508552E12,2.5869565217391304,-6.456521739130435,2.2065217391304346,-1.464718158807535,7.271735342947881,5.807017184140347,477.9542169516346,595.8955819482305
1.7089518851050518E12,2.630434782608696,-6.467391304347826,2.119565217391304,-1.4587320636191445,7.2852942091577315,5.8265621455385865,477.9516926946274,595.8971686240636
1.7089518851245835E12,2.619565217391304,-6.532608695652174,2.1956521739130435,-1.452313238658099,7.321066537030522,5.8687532983724235,477.95306300557417,595.927603951407
1.708951885144115E12,2.630434782608696,-6.576086956521739,2.119565217391304,-1.4225991276024732,7.3093107115400695,5.886711583937596,477.95342361371803,595.9392876552687
1.7089518851636467E12,2.652173913043478,-6.510869565217391,2.0,-1.3983662603338076,7.3546030944112655,5.956236834077458,477.9526302758015,595.9454179937146
1.7089518851831785E12,2.717391304347826,-6.434782608695652,2.0869565217391304,-1.4044965987797497,7.387057827360371,5.982561228580622,477.9520533027713,595.9402252364428
1.70895188520271E12,2.7065217391304346,-6.4021739130434785,2.0978260869565215,-1.4256282360110566,7.378619596793604,5.952991360782548,477.95133208648355,595.9061117060318
1.7089518852222417E12,2.7065217391304346,-6.434782608695652,2.010869565217391,-1.458948428505472,7.342991512178363,5.884043083672892,477.9478702483023,595.8837540011114
1.7089518852417732E12,2.782608695652174,-6.5,2.0543478260869565,-1.489600120735183,7.308228887108433,5.81862876637325,477.9496011673929,595.8784891222107
1.708951885261305E12,2.8369565217391304,-6.510869565217391,2.043478260869565,-1.4959468240674525,7.279957208628322,5.78401038456087,477.94621145084045,595.8640647964555
1.7089518852808367E12,2.902173913043478,-6.521739130434782,2.010869565217391,-1.5191699885332572,7.280678424916081,5.761508436382823,477.94505750478004,595.863271458539
1.7089518853003682E12,2.8152173913043477,-6.456521739130435,2.010869565217391,-1.5083517442168886,7.263224990752339,5.754873246535451,477.9427496126592,595.8668775399777
1.7089518853199E12,2.869565217391304,-6.3478260869565215,1.9456521739130435,-1.4948649996358156,7.262215287949478,5.767350288313662,477.9445526533786,595.8647860127433
1.7089518853394316E12,2.9130434782608696,-6.3478260869565215,2.0217391304347827,-1.5116693391405749,7.263657720524993,5.751988381384418,477.94318234243184,595.8624059989937
1.7089518853589631E12,2.967391304347826,-6.4021739130434785,2.108695652173913,-1.508207500959337,7.2459157998461485,5.737708298886812,477.9398647475082,595.8931298128522
1.7089518853784949E12,3.0,-6.423913043478261,1.9782608695652173,-1.507846892815458,7.266181977532146,5.7583350847166885,477.94051384216715,595.8894516097846
1.7089518853980264E12,3.010869565217391,-6.434782608695652,1.9130434782608696,-1.5204681778512215,7.246781259391458,5.726313081540237,477.9398647475082,595.9033710841384
1.708951885417558E12,3.0217391304347827,-6.423913043478261,1.967391304347826,-1.5209009076238762,7.271879586205433,5.750978678581557,477.939287774478,595.8944280021701
1.7089518854370898E12,3.0978260869565215,-6.423913043478261,1.9782608695652173,-1.4973892566429683,7.261710436548047,5.764321179905079,477.93798958516,595.9059674627742
1.7089518854566213E12,3.0652173913043477,-6.434782608695652,1.967391304347826,-1.463059361345692,7.256589800904965,5.793530439559274,477.9380617067888,595.9125305309929
1.708951885476153E12,3.0652173913043477,-6.467391304347826,1.9565217391304348,-1.4805127955094333,7.286664520104471,5.806151724595037,477.9380617067888,595.8962310428896
1.7089518854956848E12,3.0869565217391304,-6.489130434782608,1.9456521739130435,-1.4966680403552104,7.258681328139464,5.762013287784254,477.93726836887225,595.8955098266017
1.7089518855152163E12,3.108695652173913,-6.478260869565217,1.9239130434782608,-1.5193863534195846,7.263585598896217,5.744199245476633,477.9377732202737,595.8882976637242
1.708951885534748E12,3.0760869565217392,-6.478260869565217,1.9239130434782608,-1.532007638455348,7.238559393711019,5.706551755255671,477.9349604767514,595.885484920202
1.7089518855542795E12,3.0543478260869565,-6.456521739130435,1.9239130434782608,-1.518881502018154,7.235746650188762,5.7168651481706085,477.93402289557736,595.868392094182
1.7089518855738113E12,3.0869565217391304,-6.456521739130435,1.9565217391304348,-1.5806897378790068,7.391385125086918,5.810695387207912,477.93344592254715,595.9374846145492
1.708951885593343E12,3.0760869565217392,-6.456521739130435,1.967391304347826,-1.3129021302344954,7.499206960106726,6.18630482987223,477.9314986385702,595.9026498678505
1.7089518856128745E12,3.0543478260869565,-6.445652173913043,1.9239130434782608,-1.3808407045412905,7.279019627454237,5.898178922912947,477.93243621974426,595.5580527255598
1.7089518856324062E12,3.0652173913043477,-6.445652173913043,1.7934782608695652,-1.5503265321643989,7.169538994972586,5.619212462808187,477.93041681413854,595.700492942392
1.7089518856519377E12,3.0869565217391304,-6.391304347826087,1.7608695652173914,-1.5351809901214828,7.240578799316741,5.705397809195258,477.93171500345653,595.8587277959261
1.7089518856714695E12,2.967391304347826,-6.445652173913043,2.0652173913043477,-1.5142657177765033,7.242742448180014,5.728476730403511,477.9312101520551,595.9064723141756
1.7089518856910012E12,2.9565217391304346,-6.467391304347826,2.043478260869565,-1.5105153930801622,7.244617610528184,5.734102217448022,477.93214773322916,595.9059674627742
1.7089518857105327E12,2.9456521739130435,-6.467391304347826,1.9565217391304348,-1.5059717304672875,7.245266705187166,5.739294974719879,477.93092166554,595.9407300878441
1.7089518857300645E12,2.902173913043478,-6.467391304347826,1.7934782608695652,-1.514337839405279,7.278298411166479,5.7639605717612,477.9296955978508,595.9221948292488
1.7089518857495962E12,2.869565217391304,-6.5,1.7826086956521738,-1.4805127955094333,7.276639613704636,5.796126818195202,477.9270992192149,595.9419561555334
1.7089518857691277E12,2.891304347826087,-6.510869565217391,2.032608695652174,-1.4724351730865448,7.281616006090165,5.80918083300362,477.9278925571314,595.9583277652655
1.7089518857886594E12,2.891304347826087,-6.554347826086956,2.032608695652174,-1.4624102666867098,7.3051997786998495,5.842789512013139,477.9266664894422,595.9621502115906
1.708951885808191E12,2.8260869565217392,-6.521739130434782,1.75,-1.4269985469577966,7.332317511119546,5.90531896416175,477.92565678663937,595.9964079852591
1.7089518858277227E12,2.8369565217391304,-6.445652173913043,1.75,-1.4073814639307816,7.351429742745132,5.94404827881435,477.92630588129833,596.0004467964706
1.7089518858472544E12,2.8152173913043477,-6.445652173913043,1.9130434782608696,-1.412069369801208,7.36722437944703,5.9551550096458215,477.92414223243503,595.9840030651096
1.708951885866786E12,2.858695652173913,-6.413043478260869,1.8804347826086956,-1.4380331561604924,7.380566880770551,5.942533724610058,477.92334889451854,595.9462113316312
1.7089518858863176E12,2.8152173913043477,-6.369565217391304,1.8369565217391304,-1.4928455940300935,7.3477515396775654,5.854905945647472,477.9222670700869,595.9331573168228
1.7089518859058494E12,2.7065217391304346,-6.391304347826087,1.891304347826087,-1.505466879065857,7.295463358815117,5.78999647974926,477.9178676507316,595.9304166949292
1.7089518859253809E12,2.7717391304347827,-6.445652173913043,1.8695652173913042,-1.5086402307319917,7.25925830116967,5.750618070437678,477.91512702883807,595.9340948979968
1.7089518859449126E12,2.7391304347826084,-6.467391304347826,1.8152173913043477,-1.5004183650515517,7.250675827345351,5.750257462293799,477.9124585285734,595.9333736817091
1.708951885964444E12,2.793478260869565,-6.4021739130434785,1.7934782608695652,-1.500995338081758,7.2733220187809495,5.772326680699192,477.9120257988007,595.9299839651566
1.7089518859839758E12,2.793478260869565,-6.445652173913043,1.9239130434782608,-1.515419663836916,7.259907395828652,5.744487731991736,477.9092130552785,595.9315706409897
1.7089518860035076E12,2.8152173913043477,-6.478260869565217,1.934782608695652,-1.517511191071414,7.277721438136274,5.760210247064859,477.9090688120209,595.9276760730357
1.708951886023039E12,2.8369565217391304,-6.489130434782608,1.8043478260869565,-1.5118135823981265,7.255507976473329,5.743694394075202,477.9055348522109,595.9229160455366
1.7089518860425708E12,2.8369565217391304,-6.489130434782608,1.7717391304347825,-1.513039650087315,7.25240674643597,5.739367096348655,477.9053906089533,595.9171463152345
1.7089518860621025E12,2.8152173913043477,-6.521739130434782,1.8478260869565217,-1.5142657177765033,7.239713339771431,5.7254476219949275,477.90430878452173,595.9206802750446
1.708951886081634E12,2.7717391304347827,-6.478260869565217,1.891304347826087,-1.505106270921978,7.2534885708676065,5.748382299945629,477.9052463656958,595.9107996119022
1.7089518861011658E12,2.7717391304347827,-6.510869565217391,1.8152173913043477,-1.4994086622486904,7.261710436548047,5.762301774299357,477.90416454126415,595.9189493559539
1.7089518861206973E12,2.760869565217391,-6.478260869565217,1.7717391304347825,-1.4542605226350456,7.282481465635476,5.82822094300043,477.902938473575,595.9138287203108
1.708951886140229E12,2.760869565217391,-6.478260869565217,1.891304347826087,-1.4726515379728722,7.258537084881913,5.78588554690904,477.904525149408,595.9040923004261
1.7089518861597607E12,2.782608695652174,-6.510869565217391,1.9130434782608696,-1.5092893253909738,7.223197486781775,5.713908161390801,477.9022172572872,595.9148384231137
1.7089518861792922E12,2.8369565217391304,-6.456521739130435,1.8043478260869565,-1.5276803407288004,7.207330728451101,5.6796503877223,477.90358756823395,595.9050298816002
1.708951886198824E12,2.793478260869565,-6.456521739130435,1.75,-1.5410949636810976,7.2054555661029305,5.664360602421833,477.90214513565843,595.9055347330016
1.7089518862183557E12,2.8369565217391304,-6.456521739130435,1.8369565217391304,-1.5324403682280028,7.19175245663553,5.659312088407527,477.89853905421967,595.9158481259166
1.7089518862378872E12,2.8369565217391304,-6.467391304347826,1.8369565217391304,-1.5904261577637384,7.354098243009835,5.763672085246097,477.9002699733103,595.9595538329546
1.708951886257419E12,2.8152173913043477,-6.434782608695652,1.7826086956521738,-1.167937656395156,7.531661693055832,6.363724036660676,477.8958705539549,595.766772719237
1.7089518862769504E12,2.782608695652174,-6.456521739130435,1.8152173913043477,-1.3329519430341654,7.189156077999602,5.856204134965436,477.8972408649017,595.5854589444947
1.7089518862964822E12,2.760869565217391,-6.467391304347826,1.75,-1.5967007394672323,7.1319636263804,5.535262886913167,477.8957263106974,595.7937462083992
1.708951886316014E12,2.782608695652174,-6.478260869565217,1.7608695652173914,-1.5620102360260768,7.215624715760317,5.65361447973424,477.89565418906864,595.9070492872058
1.7089518863355454E12,2.717391304347826,-6.478260869565217,1.9021739130434783,-1.5435470990594744,7.205744052618034,5.662196953558559,477.8938511483492,595.9477258858354
1.7089518863550771E12,2.7282608695652173,-6.510869565217391,1.8478260869565217,-1.5400852608782365,7.218004729509918,5.677919468631681,477.8942117564931,595.9490961967822
1.7089518863746086E12,2.793478260869565,-6.467391304347826,1.8369565217391304,-1.5198912048210151,7.211225296404994,5.691334091583979,477.8926972022888,595.9620059683331
1.7089518863941404E12,2.760869565217391,-6.423913043478261,1.8043478260869565,-1.5286900435316615,7.214326526442353,5.685636482910691,477.8915432562284,595.9702999556423
1.708951886413672E12,2.717391304347826,-6.467391304347826,1.8152173913043477,-1.5278967056151278,7.227308419621995,5.699411714006867,477.88772080990327,595.9712375368164
1.7089518864332036E12,2.7717391304347827,-6.5,1.9021739130434783,-1.505466879065857,7.2335830013254885,5.728116122259632,477.8866389854716,595.9909267414721
1.7089518864527354E12,2.793478260869565,-6.5,1.9456521739130435,-1.480945525282088,7.239280609998777,5.7583350847166885,477.88685535035796,596.0060001618863
1.708951886472267E12,2.760869565217391,-6.5,1.7934782608695652,-1.460607225967315,7.2815438844613904,5.820936658494075,477.88541291778245,596.0216505553307
1.7089518864917986E12,2.7717391304347827,-6.510869565217391,1.8152173913043477,-1.4506544411962559,7.298780953738803,5.848126512542548,477.8857735259263,596.0180444738918
1.7089518865113303E12,2.760869565217391,-6.510869565217391,1.858695652173913,-1.4849122148647567,7.296184575102875,5.811272360238118,477.8846917014947,596.0000140666979
1.7089518865308618E12,2.7282608695652173,-6.434782608695652,1.8478260869565217,-1.5172948261850867,7.288179074308763,5.770884248123676,477.8849801880098,595.9618617250754
1.7089518865503936E12,2.782608695652174,-6.434782608695652,1.891304347826087,-1.5428258827717165,7.260917098631514,5.718091215859797,477.8856292826688,595.956236238031
1.7089518865699253E12,2.7717391304347827,-6.423913043478261,1.8478260869565217,-1.5653278309497634,7.194709443415338,5.629381612465575,477.88360987706307,595.9380615875795
1.7089518865894568E12,2.782608695652174,-6.467391304347826,1.934782608695652,-1.5761460752661318,7.191247605234099,5.615101529967967,477.8854850394112,595.9404416013291
1.7089518866089885E12,2.760869565217391,-6.456521739130435,1.967391304347826,-1.589560698218429,7.197666430195145,5.608105731976716,477.88397048520693,595.9462834532599
1.7089518866285203E12,2.7391304347826084,-6.445652173913043,1.8478260869565217,-1.5945370906039587,7.207258606822325,5.612721516218366,477.8851965528961,595.9386385606097
1.7089518866480518E12,2.75,-6.467391304347826,1.9021739130434783,-1.5871806844688279,7.191680335006755,5.604499650537926,477.8828886607753,595.9419561555334
1.7089518866675835E12,2.7282608695652173,-6.456521739130435,1.9456521739130435,-1.5941764824600797,7.195430659703096,5.601254177243016,477.8825280526314,595.9396482634126
1.708951886687115E12,2.7391304347826084,-6.445652173913043,1.8804347826086956,-1.5941764824600797,7.199830079058419,5.605653596598339,477.8829607824041,595.9332294384515
1.7089518867066467E12,2.7717391304347827,-6.467391304347826,1.9130434782608696,-1.6011001588225555,7.218870189055227,5.617770030232672,477.88130198494224,595.9331573168228
1.7089518867261785E12,2.760869565217391,-6.478260869565217,1.9782608695652173,-1.608456564957686,7.208268309625186,5.5998117446675,477.88130198494224,595.9307773030731
1.70895188674571E12,2.75,-6.478260869565217,1.9565217391304348,-1.6088892947303408,7.224712040986066,5.615822746255725,477.8826001742602,595.9296954786415
1.7089518867652417E12,2.7282608695652173,-6.478260869565217,1.9565217391304348,-1.6118462815101484,7.242598204922463,5.630751923412315,477.8823116877451,595.9289742623537
1.7089518867847734E12,2.7065217391304346,-6.489130434782608,1.9130434782608696,-1.554365343375843,7.267552288478886,5.713186945103043,477.8806528902833,595.9343112628832
1.708951886804305E12,2.6956521739130435,-6.456521739130435,1.9130434782608696,-1.5806897378790068,7.250820070602902,5.670130332723896,477.88187895797245,595.9268106134905
1.7089518868238367E12,2.7065217391304346,-6.456521739130435,1.967391304347826,-1.6132165924568884,7.217139269964608,5.60392267750772,477.8799316739955,595.927603951407
1.7089518868433682E12,2.684782608695652,-6.478260869565217,1.9239130434782608,-1.636800365066572,7.203436160497208,5.566635795430637,477.87978743073796,595.9252239376574
1.7089518868629E12,2.6739130434782608,-6.478260869565217,1.9130434782608696,-1.6527392450260217,7.212451364094182,5.55971211906816,477.8789940928214,595.9277481946646
1.7089518868824316E12,2.684782608695652,-6.478260869565217,1.9456521739130435,-1.6569944211237935,7.215119864358886,5.558125443235093,477.88058076865445,595.9271712216344
1.7089518869019631E12,2.6956521739130435,-6.5,1.9565217391304348,-1.714980210659529,7.341621201231623,5.626640990572094,477.88029228213935,595.9520531835619
1.7089518869214949E12,2.652173913043478,-6.456521739130435,1.9782608695652173,-1.3118203058028586,7.427878669247469,6.11605836344461,477.8801480388818,595.844591956686
1.7089518869410266E12,2.641304347826087,-6.445652173913043,1.9565217391304348,-1.3276870641335325,7.160451669746837,5.8327646056133045,477.88086925516956,595.5987293241894
1.708951886960558E12,2.7282608695652173,-6.456521739130435,1.8804347826086956,-1.7172159811515786,7.116313232936053,5.399097251784474,477.8815183498286,595.7845867615446
1.7089518869800898E12,2.7065217391304346,-6.423913043478261,1.891304347826087,-1.708128655925829,7.237405447650605,5.529276791724777,477.88072501191203,595.9233487753093
1.7089518869996213E12,2.6630434782608696,-6.445652173913043,2.032608695652174,-1.6877903566110561,7.235458163673659,5.547667807062603,477.87884984956384,595.95335137288
1.708951887019153E12,2.641304347826087,-6.489130434782608,1.9456521739130435,-1.67949636930184,7.255075246700675,5.575578877398835,477.87949894422286,595.9733290640509
1.7089518870386848E12,2.7065217391304346,-6.456521739130435,1.9456521739130435,-1.6727169361969159,7.266903193819904,5.594186257622988,477.877840146761,595.9773678752623
1.7089518870582163E12,2.6630434782608696,-6.423913043478261,1.934782608695652,-1.680217585589598,7.282697830521802,5.602480244932204,477.8787056063063,595.9883303628362
1.708951887077748E12,2.641304347826087,-6.456521739130435,1.891304347826087,-1.6652162868042335,7.274043235068707,5.608826948264474,477.8781286332761,595.9837867002233
1.7089518870972795E12,2.641304347826087,-6.478260869565217,1.9891304347826086,-1.6500707447613174,7.29474214252736,5.644671397766042,477.8779843900185,596.004774094197
1.7089518871168113E12,2.717391304347826,-6.5,2.0217391304347827,-1.637810067869433,7.324672618469312,5.686862550599879,477.87884984956384,596.0173232576041
1.708951887136343E12,2.717391304347826,-6.510869565217391,1.9130434782608696,-1.6211499716222253,7.356910986532091,5.7357610149098655,477.87646983581425,596.0429264358195
1.7089518871558745E12,2.6956521739130435,-6.467391304347826,1.8804347826086956,-1.6117741598813726,7.39188997648835,5.780115816606977,477.87776802513224,596.0370124622599
1.7089518871754062E12,2.6630434782608696,-6.5,1.934782608695652,-1.6155966062064895,7.410425235083728,5.794828628877238,477.8759649844128,596.0190541766947
1.708951887194938E12,2.6739130434782608,-6.456521739130435,1.934782608695652,-1.6479792175268195,7.3885723815646625,5.740593164037843,477.8761092276704,595.9886188493513
1.7089518872144695E12,2.684782608695652,-6.456521739130435,1.9565217391304348,-1.683967910285939,7.3456600124430675,5.6616921021571285,477.87762378187466,595.953639859395
1.7089518872340012E12,2.684782608695652,-6.467391304347826,1.9565217391304348,-1.7200287246738346,7.321282901916851,5.601254177243016,477.87675832232935,595.9472931560628
1.7089518872535327E12,2.75,-6.478260869565217,1.9239130434782608,-1.7239232926277273,7.318542280023371,5.594618987395643,477.87675832232935,595.9400088715564
1.7089518872730645E12,2.6956521739130435,-6.467391304347826,1.967391304347826,-1.7304863608463241,7.334553281611596,5.604066920765272,477.87733529535956,595.9423888853061
1.7089518872925962E12,2.6739130434782608,-6.456521739130435,1.8695652173913042,-1.739862172587177,7.359291000281692,5.619428827694515,477.8775516602459,595.9361864252313
1.7089518873121277E12,2.6630434782608696,-6.478260869565217,1.934782608695652,-1.7400064158447286,7.359795851683122,5.619789435838394,477.8766862007006,595.934022776368
1.7089518873316594E12,2.6630434782608696,-6.489130434782608,1.9456521739130435,-1.7396458077008496,7.378547475164829,5.638901667463979,477.8763977141855,595.9369797631479
1.7089518873511912E12,2.684782608695652,-6.5,1.8695652173913042,-1.7409439970188139,7.385471151527304,5.6445271545084905,477.8752437681251,595.9309936679595
1.7089518873707227E12,2.7065217391304346,-6.478260869565217,1.9456521739130435,-1.7431797675108633,7.402780342433494,5.659600574922631,477.8754601330114,595.9308494247019
1.7089518873902544E12,2.684782608695652,-6.478260869565217,1.9456521739130435,-1.757099241864591,7.410930086485158,5.653830844620567,477.87733529535956,595.9263778837178
1.708951887409786E12,2.6956521739130435,-6.478260869565217,1.891304347826087,-1.7710187162183186,7.409992505311074,5.638973789092755,477.8754601330114,595.9270269783768
1.7089518874293176E12,2.684782608695652,-6.467391304347826,1.9239130434782608,-1.7623641207652236,7.409271289023315,5.646907168258092,477.8755322546402,595.9175069233784
1.7089518874488494E12,2.6630434782608696,-6.478260869565217,1.934782608695652,-1.7614986612199142,7.458674604734732,5.697175943514818,477.8774074169883,595.90798686838
1.7089518874683809E12,2.6630434782608696,-6.5,1.9239130434782608,-1.7432518891396391,7.453193360947772,5.709941471808133,477.876541957443,595.9230602887941
1.7089518874879126E12,2.684782608695652,-6.532608695652174,1.9565217391304348,-1.7083450208121564,7.508294285332475,5.799949264520319,477.8755322546402,595.9099341523569
1.7089518875074443E12,2.6956521739130435,-6.489130434782608,1.9239130434782608,-1.7356791181181812,7.459684307537593,5.724005189419412,477.87618134929915,595.8991159080406
1.7089518875269758E12,2.684782608695652,-6.478260869565217,1.891304347826087,-1.7701532566730092,7.477642593102765,5.707489336429756,477.8771189304732,595.890605555845
1.7089518875465076E12,2.6739130434782608,-6.467391304347826,1.9239130434782608,-1.794674610456778,7.471295889770495,5.676621279313717,477.87704680884445,595.8842588525127
1.708951887566039E12,2.6739130434782608,-6.456521739130435,1.9239130434782608,-1.7993625163272045,7.449298792993879,5.649936276666675,477.8766862007006,595.8910382856177
1.7089518875855708E12,2.6739130434782608,-6.456521739130435,1.934782608695652,-1.814652301627672,7.472161349315805,5.657509047688133,477.8771189304732,595.886422501376
1.7089518876051025E12,2.6739130434782608,-6.467391304347826,1.9891304347826086,-1.7933764211388137,7.733025280597841,5.939648859459027,477.8769746872157,595.9672708472336
1.708951887624634E12,2.6630434782608696,-6.467391304347826,1.9456521739130435,-1.3590599726510015,7.724082198629642,6.36502222597864,477.87495528160997,595.6812364675089
1.7089518876441658E12,2.6739130434782608,-6.489130434782608,1.934782608695652,-1.850857359273119,7.370614095999492,5.5197567367263725,477.87971530910914,595.5929595938874
1.7089518876636975E12,2.7065217391304346,-6.456521739130435,1.8804347826086956,-1.8768932672611796,7.436172656556685,5.559279389295505,477.876541957443,595.798289871012
1.708951887683229E12,2.619565217391304,-6.478260869565217,2.032608695652174,-1.8349184793136692,7.51146763699861,5.676549157684941,477.87848924141997,595.9139008419396
1.7089518877027607E12,2.619565217391304,-6.489130434782608,1.9782608695652173,-1.8217202212476995,7.510890663968404,5.689170442720704,477.8776959035034,595.9195263289841
1.7089518877222922E12,2.652173913043478,-6.510869565217391,2.010869565217391,-1.8193402074980984,7.524377408549477,5.705037201051379,477.88000379562425,595.9286857758386
1.708951887741824E12,2.6956521739130435,-6.489130434782608,1.9456521739130435,-1.8130656257946047,7.516011299611486,5.702945673816881,477.8792825793365,595.9307051814443
1.7089518877613557E12,2.630434782608696,-6.445652173913043,1.9456521739130435,-1.8078728685227476,7.522430124572531,5.714557256049783,477.8792825793365,595.9344555061407
1.7089518877808872E12,2.641304347826087,-6.434782608695652,2.0,-1.7855872852310284,7.526829543927854,5.7412422586968255,477.87942682259404,595.9432543448513
1.708951887800419E12,2.6630434782608696,-6.489130434782608,2.0869565217391304,-1.7764999600052787,7.5513508977116235,5.774850937706344,477.88086925516956,595.9484471021232
1.7089518878199504E12,2.7065217391304346,-6.510869565217391,1.9456521739130435,-1.7548634713725415,7.593686293803012,5.838822822430471,477.8779843900185,595.9630156711358
1.7089518878394822E12,2.6630434782608696,-6.489130434782608,1.9565217391304348,-1.7508246601610973,7.612365795655942,5.861541135494845,477.8802201605106,595.9690017663243
1.708951887859014E12,2.641304347826087,-6.456521739130435,1.9782608695652173,-1.7275293740665167,7.619145228760867,5.89161585469435,477.87978743073796,595.9738339154522
1.7089518878785454E12,2.652173913043478,-6.445652173913043,1.9891304347826086,-1.7458482677755676,7.626213148380894,5.880364880605327,477.8816625930861,595.9513319672742
1.7089518878980771E12,2.6630434782608696,-6.489130434782608,2.0543478260869565,-1.7787357304973281,7.608543349330825,5.829807618833497,477.8806528902833,595.9169299503482
1.708951887917609E12,2.6956521739130435,-6.5,2.0543478260869565,-1.82496569454261,7.573131629601911,5.748165935059301,477.8823116877451,595.9007747055024
1.7089518879371404E12,2.6739130434782608,-6.478260869565217,1.9782608695652173,-1.8368657632906156,7.556615776612256,5.71975001332164,477.88303290403286,595.8798594331574
1.708951887956672E12,2.7065217391304346,-6.467391304347826,2.0652173913043477,-1.8393900202977682,7.534041706805434,5.694651686507665,477.882672295889,595.8937067858824
1.7089518879762036E12,2.630434782608696,-6.456521739130435,2.0217391304347827,-1.8395342635553198,7.546013897182215,5.706479633626895,477.88360987706307,595.8810133792178
1.7089518879957354E12,2.608695652173913,-6.445652173913043,2.0,-1.8557616300298727,7.570318886079656,5.714557256049783,477.8823838093739,595.8878649339515
1.708951888015267E12,2.6630434782608696,-6.423913043478261,2.0652173913043477,-1.8537422244241506,7.555317587294292,5.701575362870141,477.88613413407023,595.8813018657329
1.7089518880347986E12,2.6956521739130435,-6.478260869565217,2.032608695652174,-1.8442221694257463,7.575439521722737,5.731217352296991,477.88512443126734,595.8792824601272
1.7089518880543303E12,2.684782608695652,-6.532608695652174,2.043478260869565,-1.8565549679464064,7.5812092520248004,5.724654284078394,477.88699959361554,595.8793545817559
1.708951888073862E12,2.7065217391304346,-6.532608695652174,2.130434782608696,-1.8525161567349622,7.575151035207634,5.722634878472672,477.8863504989565,595.8657235939173
1.7089518880933936E12,2.684782608695652,-6.532608695652174,2.0869565217391304,-1.8608101440441782,7.575151035207634,5.714340891163456,477.88836990456224,595.8702672565303
1.7089518881129253E12,2.684782608695652,-6.489130434782608,2.032608695652174,-1.8679501852929814,7.574069210775997,5.706119025483016,477.88772080990327,595.868392094182
1.7089518881324568E12,2.6630434782608696,-6.456521739130435,2.0543478260869565,-1.8727102127921835,7.607389403270412,5.734679190478229,477.88757656664575,595.8624781206224
1.7089518881519885E12,2.6630434782608696,-6.445652173913043,2.119565217391304,-1.8630459145362277,7.623184039972311,5.760138125436083,477.88995658039534,595.856203538919
1.7089518881715203E12,2.6630434782608696,-6.434782608695652,2.108695652173913,-1.8439336829106432,7.628016189100289,5.7840825061896455,477.8904614317968,595.8776957842941
1.7089518881910518E12,2.6956521739130435,-6.423913043478261,2.108695652173913,-1.7917897453057463,7.649364191217923,5.857574445912176,477.89082203994064,595.846250754148
1.7089518882105835E12,2.6739130434782608,-6.456521739130435,2.108695652173913,-1.8230184105656637,7.638762311787882,5.815743901222218,477.89139901297085,595.8332688609682
1.7089518882301152E12,2.6739130434782608,-6.445652173913043,2.0652173913043477,-1.8510737241594464,7.599095415961196,5.74802169180175,477.89096628319817,595.8691133104699
1.7089518882496467E12,2.6630434782608696,-6.445652173913043,2.0978260869565215,-1.869464739497273,7.598157834787111,5.728693095289838,477.89226447251616,595.8545447414571
1.7089518882691785E12,2.684782608695652,-6.445652173913043,2.0978260869565215,-1.8772538754050585,7.596066307552613,5.718812432147555,477.8921923508874,595.8541841333132
1.70895188828871E12,2.6739130434782608,-6.478260869565217,2.119565217391304,-1.8867739304034628,7.606668186982654,5.719894256579192,477.8934184185766,595.8450246864587
1.7089518883082417E12,2.6956521739130435,-6.467391304347826,2.152173913043478,-1.8439336829106432,7.858949644440371,6.015015961529728,477.8937069050917,595.9292627488688
1.7089518883277734E12,2.641304347826087,-6.467391304347826,2.0869565217391304,-1.4756806463814554,7.939653747040481,6.463973100659025,477.893274175319,595.6608981681941
1.708951888347305E12,2.6630434782608696,-6.423913043478261,2.0869565217391304,-1.7317845501642883,7.572410413314154,5.8406258631498655,477.89709662164415,595.5481720624175
1.7089518883668367E12,2.6739130434782608,-6.445652173913043,2.0543478260869565,-1.93120085372935,7.554956979150412,5.623756125421062,477.8972408649017,595.7470835145812
1.7089518883863684E12,2.619565217391304,-6.4021739130434785,2.141304347826087,-1.893986093281042,7.632199243569284,5.738213150288242,477.89767359467436,595.8579344580096
1.7089518884059E12,2.641304347826087,-6.456521739130435,2.141304347826087,-1.8732871858223898,7.641142325537483,5.767855139715093,477.8971687432729,595.8867831095199
1.7089518884254316E12,2.641304347826087,-6.478260869565217,2.119565217391304,-1.8664356310886898,7.651960569853851,5.785524938765161,477.89536570255353,595.8789218519834
1.7089518884449631E12,2.6630434782608696,-6.413043478260869,2.130434782608696,-1.868743523209515,7.6741019098880185,5.8053583866785035,477.89853905421967,595.8965195294046
1.7089518884644949E12,2.652173913043478,-6.423913043478261,2.032608695652174,-1.8621083333621424,7.684415302802957,5.822306969440815,477.89817844607575,595.8987552998967
1.7089518884840266E12,2.641304347826087,-6.434782608695652,2.0760869565217392,-1.8497034132127064,7.713047589426946,5.863344176214239,477.89623116209884,595.905390489744
1.708951888503558E12,2.652173913043478,-6.489130434782608,2.141304347826087,-1.8219365861340269,7.720476117190852,5.898539531056826,477.8964475269851,595.9407300878441
1.7089518885230898E12,2.641304347826087,-6.5,2.0543478260869565,-1.811911679734192,7.7495411335874955,5.937629453853304,477.8955820674398,595.9446967774269
1.7089518885426213E12,2.630434782608696,-6.478260869565217,2.043478260869565,-1.7814763523908084,7.77774069043883,5.996264338048022,477.8938511483492,595.9551544135993
1.708951888562153E12,2.641304347826087,-6.434782608695652,2.0543478260869565,-1.767773242923408,7.774278852257593,6.006505609334185,477.89320205369023,595.9454179937146
1.7089518885816848E12,2.652173913043478,-6.434782608695652,2.0652173913043477,-1.7897703397000242,7.808392382668542,6.018622042968517,477.89435599975064,595.9196705722417
1.7089518886012163E12,2.6630434782608696,-6.456521739130435,2.0652173913043477,-1.8173929235211521,7.803199625396684,5.985806701875532,477.8927693239176,595.9009189487599
1.708951888620748E12,2.641304347826087,-6.510869565217391,2.0652173913043477,-1.8617477252182635,7.753435701541389,5.891687976323126,477.89262508066,595.8657235939173
1.7089518886402798E12,2.652173913043478,-6.489130434782608,2.0217391304347827,-1.8667962392325688,7.730428901961911,5.8636326627293425,477.8924087157737,595.851371389791
1.7089518886598113E12,2.6630434782608696,-6.5,2.0760869565217392,-1.8820139029042606,7.719466414387991,5.837452511483731,477.89312993206147,595.8631272152815
1.708951888679343E12,2.619565217391304,-6.510869565217391,2.0217391304347827,-1.8776866051777132,7.732808915711512,5.855122310533799,477.8924087157737,595.841707091535
1.7089518886988745E12,2.641304347826087,-6.467391304347826,2.0,-1.8749459832842332,7.7426895788537955,5.8677435955695625,477.8937069050917,595.8358652396042
1.7089518887184062E12,2.641304347826087,-6.456521739130435,2.130434782608696,-1.869825347641152,7.744636862830742,5.87481151518959,477.89168749948595,595.832403401423
1.708951888737938E12,2.652173913043478,-6.478260869565217,2.032608695652174,-1.8658586580584835,7.752281755480976,5.886423097422493,477.8885862694486,595.8318264283928
1.7089518887574695E12,2.652173913043478,-6.478260869565217,2.0,-1.8592955898398866,7.7419683625660385,5.882672772726152,477.89024506691044,595.839471321043
1.7089518887770012E12,2.6739130434782608,-6.489130434782608,2.0543478260869565,-1.872205361390753,7.743194430255226,5.870989068864473,477.8907499183119,595.832691887938
1.708951888796533E12,2.652173913043478,-6.489130434782608,2.043478260869565,-1.8732871858223898,7.723000374198005,5.849713188375615,477.8898844587666,595.8168972512361
1.7089518888160645E12,2.652173913043478,-6.5,2.0543478260869565,-1.8802829838136417,7.726029482606588,5.845746498792947,477.8904614317968,595.822090008508
1.7089518888355962E12,2.641304347826087,-6.478260869565217,2.010869565217391,-1.8766047807460764,7.723577347228211,5.846972566482135,477.8900287020241,595.812425710252
1.7089518888551277E12,2.619565217391304,-6.423913043478261,1.9891304347826086,-1.8667962392325688,7.74896416055729,5.882167921324721,477.8882977829335,595.8204312110462
1.7089518888746594E12,2.641304347826087,-6.423913043478261,1.9782608695652173,-1.8526603999925138,7.74074229487685,5.888081894884336,477.88815353967595,595.8175463458952
1.7089518888941912E12,2.652173913043478,-6.445652173913043,2.032608695652174,-1.8142916934837932,7.748387187527083,5.93409549404329,477.88714383687307,595.808242655783
1.7089518889137227E12,2.652173913043478,-6.510869565217391,2.0217391304347827,-1.848837953667397,7.712614859654291,5.863776905986894,477.88750444501693,595.8155990619182
1.7089518889332544E12,2.6630434782608696,-6.467391304347826,1.9456521739130435,-1.8579974005219224,7.711388791965103,5.85339139144318,477.88750444501693,595.8081705341543
1.7089518889527861E12,2.652173913043478,-6.456521739130435,1.9782608695652173,-1.8872066601761175,7.691411100794208,5.804204440618091,477.88685535035796,595.7936740867704
1.7089518889723176E12,2.641304347826087,-6.489130434782608,1.9891304347826086,-1.8952121609702304,7.697252952725048,5.802040791754817,477.88642262058534,595.7836491803705
1.7089518889918494E12,2.652173913043478,-6.5,1.9782608695652173,-1.9275226506617846,7.741968362566038,5.814445711904253,477.8851965528961,595.7997323035875
1.7089518890113809E12,2.641304347826087,-6.510869565217391,2.0217391304347827,-1.8955006474853335,7.949678653440316,6.054178005954982,477.8857735259263,595.8583671877823
1.7089518890309126E12,2.6630434782608696,-6.510869565217391,2.0217391304347827,-1.4339222233202724,7.915204514885487,6.481282291565215,477.8832492689192,595.4368162675877
1.7089518890504443E12,2.6739130434782608,-6.489130434782608,1.9782608695652173,-1.9083382974074243,7.546013897182215,5.6376755997747905,477.88613413407023,595.4707134331123
1.7089518890699758E12,2.6739130434782608,-6.423913043478261,1.858695652173913,-1.9251426369121836,7.641070203908707,5.715927566996523,477.884908066381,595.7422513654532
1.7089518890895076E12,2.619565217391304,-6.434782608695652,2.043478260869565,-1.8973036882047283,7.656864840610606,5.759561152405877,477.8823116877451,595.7772303554094
1.7089518891090393E12,2.6739130434782608,-6.456521739130435,2.032608695652174,-1.8975921747198314,7.652104813111404,5.754512638391572,477.88389836357817,595.7923758974524
1.7089518891285708E12,2.6630434782608696,-6.521739130434782,1.9130434782608696,-1.8837448219948796,7.652465421255282,5.768720599260402,477.8825280526314,595.8139402644564
1.7089518891481025E12,2.6956521739130435,-6.478260869565217,1.9239130434782608,-1.878479943094247,7.641430812052586,5.762950868958339,477.8805086470257,595.8189887784706
1.708951889167634E12,2.619565217391304,-6.413043478260869,1.9021739130434783,-1.8709071720727888,7.6254198104643605,5.754512638391572,477.88036440376817,595.8422840645652
1.7089518891871658E12,2.619565217391304,-6.456521739130435,2.010869565217391,-1.864632590369295,7.6377526089850205,5.773120018615725,477.88036440376817,595.8385337398689
1.7089518892066975E12,2.6630434782608696,-6.489130434782608,2.043478260869565,-1.8350627225712208,7.6388344334166565,5.803771710845436,477.87856136304873,595.8548332279722
1.708951889226229E12,2.6739130434782608,-6.532608695652174,1.9239130434782608,-1.8202777886721837,7.663860638601856,5.843582849929673,477.87747953861714,595.8662284453188
1.7089518892457607E12,2.6739130434782608,-6.5,1.9130434782608696,-1.7975594756078097,7.676986775039051,5.879427299431241,477.87776802513224,595.8647860127433
1.7089518892652922E12,2.641304347826087,-6.467391304347826,1.934782608695652,-1.7847939473144947,7.694151722687689,5.909357775373194,477.8771189304732,595.8707721079317
1.708951889284824E12,2.619565217391304,-6.445652173913043,1.934782608695652,-1.8024637463645634,7.691843830566864,5.8893800842023,477.8787777279351,595.8507944167608
1.7089518893043557E12,2.630434782608696,-6.423913043478261,1.9239130434782608,-1.8536701027953748,7.656864840610605,5.80319473781523,477.8771189304732,595.8266336711209
1.7089518893238872E12,2.652173913043478,-6.489130434782608,1.9239130434782608,-1.8802829838136417,7.624193742775171,5.74391075896153,477.8771189304732,595.8099735748737
1.708951889343419E12,2.619565217391304,-6.445652173913043,1.9021739130434783,-1.898746120780244,7.588998387932586,5.690252267152341,477.87675832232935,595.7913661946495
1.7089518893629507E12,2.641304347826087,-6.489130434782608,1.9891304347826086,-1.9030012968780157,7.576665589411926,5.67366429253391,477.87834499816245,595.7927365055963
1.7089518893824822E12,2.5978260869565215,-6.478260869565217,1.9239130434782608,-1.9010540129010693,7.581930468312558,5.680876455411489,477.8756764978977,595.7889140592712
1.708951889402014E12,2.630434782608696,-6.467391304347826,1.8695652173913042,-1.910141338126819,7.5949123614922005,5.684771023365381,477.87747953861714,595.7850916129461
1.7089518894215454E12,2.5978260869565215,-6.467391304347826,1.967391304347826,-1.893625485137163,7.586113522781554,5.692488037644392,477.8762534709279,595.7765091391217
1.7089518894410771E12,2.5978260869565215,-6.478260869565217,1.891304347826087,-1.9010540129010693,7.607028795126533,5.705974782225464,477.8742340653222,595.7839376668857
1.708951889460609E12,2.619565217391304,-6.489130434782608,1.934782608695652,-1.8955727691141093,7.598879051074869,5.70330628196076,477.8757486195265,595.7814855315072
1.7089518894801404E12,2.641304347826087,-6.510869565217391,1.9891304347826086,-1.9086267839225275,7.591017793538308,5.68239100961578,477.87805651164734,595.7777352068109
1.708951889499672E12,2.619565217391304,-6.5,1.934782608695652,-1.9086267839225275,7.583877752289505,5.675250968366977,477.87704680884445,595.776725504008
1.7089518895192039E12,2.5978260869565215,-6.5,1.9130434782608696,-1.9072564729757875,7.588709901417483,5.681453428441695,477.87776802513224,595.7736963955995
1.7089518895387354E12,2.608695652173913,-6.489130434782608,1.9130434782608696,-1.9084104190362001,7.578901359903975,5.670490940867775,477.87495528160997,595.7703066790469
1.708951889558267E12,2.5869565217391304,-6.489130434782608,1.934782608695652,-1.9005491614996388,7.57298738634436,5.672438224844721,477.8761092276704,595.7697297060167
1.7089518895777986E12,2.608695652173913,-6.456521739130435,1.9239130434782608,-1.898746120780244,7.608326984444497,5.709580863664254,477.8761092276704,595.7724703279102
1.7089518895973303E12,2.619565217391304,-6.456521739130435,1.9456521739130435,-1.8742247669964753,7.588709901417483,5.7144851344210075,477.8745225518373,595.7685757599563
1.708951889616862E12,2.619565217391304,-6.467391304347826,1.934782608695652,-1.844366412683298,7.601331186453247,5.7569647737699485,477.8754601330114,595.7584787319278
1.7089518896363936E12,2.619565217391304,-6.478260869565217,1.9456521739130435,-1.868094428550533,7.552288478885708,5.684194050335175,477.8758207411553,595.763887854086
1.7089518896559253E12,2.619565217391304,-6.489130434782608,1.9456521739130435,-1.9127377167627475,7.547312086500179,5.6345743697374315,477.8752437681251,595.7526368799969
1.708951889675457E12,2.619565217391304,-6.456521739130435,1.9021739130434783,-1.911511649073559,7.530075017222765,5.618563368149205,477.87264738948915,595.7480210957552
1.7089518896949885E12,2.641304347826087,-6.456521739130435,1.9130434782608696,-1.9264408262301478,7.542335694114649,5.615894867884501,477.873657092292,595.7371307298101
1.7089518897145203E12,2.641304347826087,-6.478260869565217,1.9456521739130435,-1.981830237129955,7.673092207085158,5.691261969955203,477.8751716464963,595.7554496235192
1.7089518897340518E12,2.641304347826087,-6.478260869565217,1.9239130434782608,-1.8534537379090474,7.781707380021499,5.928253642112451,477.87473891672363,595.8051414257457
1.7089518897535835E12,2.641304347826087,-6.478260869565217,1.9130434782608696,-1.4834697822892406,7.544571464606698,6.0611016823174575,477.8757486195265,595.3632522062364
1.7089518897731152E12,2.6739130434782608,-6.456521739130435,1.9021739130434783,-1.9647374111100926,7.35914675702414,5.394409345914048,477.87690256558693,595.4363114161863
1.7089518897926467E12,2.6739130434782608,-6.4021739130434785,1.8695652173913042,-1.9534143153922936,7.514136137263314,5.560721821871021,477.8758207411553,595.7167203088666
1.7089518898121785E12,2.5869565217391304,-6.467391304347826,2.0,-1.9336529891077268,7.537070815214016,5.6034178261062895,477.8751716464963,595.7328034320835
1.7089518898317102E12,2.6739130434782608,-6.489130434782608,1.9130434782608696,-1.9176419875195012,7.51593917798271,5.598297190463208,477.87502740323873,595.74008771659
1.7089518898512417E12,2.6956521739130435,-6.5,1.9456521739130435,-1.913963784451936,7.527262273700509,5.613298489248573,477.87560437626894,595.7480210957552
1.7089518898707734E12,2.6630434782608696,-6.456521739130435,1.9239130434782608,-1.9099249732404917,7.528344098132146,5.618419124891654,477.8754601330114,595.7537908260573
1.708951889890305E12,2.6630434782608696,-6.456521739130435,1.934782608695652,-1.8976642963486072,7.55466849263531,5.657004196286702,477.8731522408906,595.7692248546153
1.7089518899098367E12,2.652173913043478,-6.478260869565217,1.9891304347826086,-1.8903078902134767,7.581497738539904,5.691189848326427,477.8754601330114,595.7717491116225
1.7089518899293684E12,2.684782608695652,-6.510869565217391,1.967391304347826,-1.863983495710313,7.5980135915295595,5.7340300958192465,477.87207041645894,595.7935298435128
1.7089518899489E12,2.684782608695652,-6.489130434782608,1.934782608695652,-1.8416979124185935,7.62729497281253,5.785597060393937,477.8738734571783,595.8070165880939
1.7089518899684316E12,2.6739130434782608,-6.445652173913043,1.9239130434782608,-1.8150850314003268,7.651239353566093,5.836154322165767,477.8725752678604,595.807305074609
1.7089518899879631E12,2.652173913043478,-6.434782608695652,1.934782608695652,-1.818474747952789,7.676770410152723,5.858295662199934,477.87322436251935,595.791510437907
1.7089518900074949E12,2.630434782608696,-6.434782608695652,1.891304347826087,-1.826696613633229,7.671649774509642,5.844953160876413,477.8738734571783,595.7698018276456
1.7089518900270266E12,2.684782608695652,-6.456521739130435,1.967391304347826,-1.8732871858223898,7.648282366786286,5.774995180963896,477.8709885920273,595.7272500666678
1.708951890046558E12,2.6739130434782608,-6.5,1.967391304347826,-1.8952121609702304,7.627727702585185,5.732515541614955,477.8724310246028,595.713691200458
1.7089518900660898E12,2.6956521739130435,-6.478260869565217,1.8804347826086956,-1.9165601630878644,7.595849942666286,5.679289779578421,477.8742340653222,595.7115275515947
1.7089518900856216E12,2.6630434782608696,-6.489130434782608,1.9891304347826086,-1.921536555473394,7.605081511149587,5.683544955676193,477.8724310246028,595.7025123479978
1.708951890105153E12,2.619565217391304,-6.456521739130435,1.9021739130434783,-1.9182189605497075,7.594191145204443,5.675972184654735,477.87221465971646,595.7082820782998
1.7089518901246848E12,2.619565217391304,-6.445652173913043,1.9130434782608696,-1.9187959335799138,7.600970578309367,5.682174644729453,477.874306186951,595.7015747668237
1.7089518901442163E12,2.652173913043478,-6.445652173913043,1.9456521739130435,-1.9110067976721286,7.606668186982655,5.695661389310526,477.8735849706632,595.6994111179604
1.708951890163748E12,2.652173913043478,-6.489130434782608,1.9021739130434783,-1.9188680552086896,7.605586362551017,5.6867183073423275,477.87437830857976,595.6854916436066
1.7089518901832798E12,2.641304347826087,-6.510869565217391,1.9565217391304348,-1.9165601630878644,7.587051103955639,5.670490940867775,477.87560437626894,595.6749618858054
1.7089518902028113E12,2.652173913043478,-6.510869565217391,2.0,-1.9128098383915233,7.577675292214787,5.664865453823263,477.874306186951,595.6754667372069
1.708951890222343E12,2.641304347826087,-6.510869565217391,1.9456521739130435,-1.918363203807259,7.5777474138435625,5.659384210036303,477.8748831599812,595.6619799926258
1.7089518902418748E12,2.630434782608696,-6.510869565217391,1.9456521739130435,-1.9255032450560625,7.592604469371375,5.667101224315313,477.8748831599812,595.6605375600502
1.7089518902614062E12,2.619565217391304,-6.478260869565217,1.967391304347826,-1.9257917315711657,7.580560157365818,5.654768425794653,477.87762378187466,595.6208706642235
1.708951890280938E12,2.5978260869565215,-6.456521739130435,1.9239130434782608,-1.920166244526654,7.571184345624966,5.651018101098312,477.8771189304732,595.6193561100192
1.7089518903004695E12,2.619565217391304,-6.456521739130435,1.9782608695652173,-1.9241329341093225,7.591162036795859,5.667029102686537,477.87618134929915,595.6365210576679
1.7089518903200012E12,2.641304347826087,-6.478260869565217,2.010869565217391,-1.9162716765727612,7.602845740657537,5.686574064084776,477.8763977141855,595.6179136774438
1.708951890339533E12,2.641304347826087,-6.489130434782608,1.967391304347826,-1.8879999980926512,7.59988875387773,5.711888755785079,477.8787056063063,595.6397665309628
1.7089518903590645E12,2.630434782608696,-6.5,1.9565217391304348,-1.8486215887810695,7.6192173503896425,5.770595761608573,477.87704680884445,595.6311119355097
1.7089518903785962E12,2.619565217391304,-6.489130434782608,1.967391304347826,-1.8911733497587861,7.569958277935777,5.678784928176991,477.88043652539693,595.6582296679294
1.708951890398128E12,2.619565217391304,-6.489130434782608,1.9565217391304348,-1.9105740678994738,7.571689197026396,5.661115129126922,477.87942682259404,595.6479883966432
1.7089518904176594E12,2.608695652173913,-6.445652173913043,1.9239130434782608,-1.9326432863048657,7.566929169527194,5.634285883222328,477.87762378187466,595.6444544368333
1.7089518904371912E12,2.608695652173913,-6.445652173913043,1.9891304347826086,-1.9435336522500102,7.569814034678225,5.626280382428215,477.87913833607894,595.6380356118722
1.7089518904567227E12,2.630434782608696,-6.510869565217391,2.0,-1.9561549372857736,7.588565658159931,5.632410720874158,477.8796431874804,595.6435889772879
1.7089518904762544E12,2.619565217391304,-6.510869565217391,1.9782608695652173,-1.8268408568907806,7.747810214496877,5.920969357606096,477.88000379562425,595.7155663628062
1.7089518904957861E12,2.5978260869565215,-6.510869565217391,1.967391304347826,-1.4365907235849766,7.7913716782774545,6.354780954692478,477.88086925516956,595.3619540169185
1.7089518905153176E12,2.630434782608696,-6.489130434782608,1.9565217391304348,-1.9806041694407666,7.439057521707717,5.45845335226695,477.8841147284645,595.3851771813843
1.7089518905348494E12,2.652173913043478,-6.445652173913043,1.9239130434782608,-1.9809647775846455,7.533825341919106,5.55286056433446,477.8844753366084,595.5708903754819
1.708951890554381E12,2.5869565217391304,-6.445652173913043,2.0978260869565215,-1.9423797061895975,7.592965077515254,5.650585371325657,477.8850523096386,595.6706345880789
1.7089518905739126E12,2.619565217391304,-6.445652173913043,1.9782608695652173,-1.927378407404233,7.5945517533483216,5.6671733459440885,477.88627837732776,595.6756831020931
1.7089518905934443E12,2.619565217391304,-6.489130434782608,1.9891304347826086,-1.9131704465354022,7.6168373366400415,5.703666890104639,477.8864947422141,595.6797940349334
1.7089518906129758E12,2.6739130434782608,-6.467391304347826,2.010869565217391,-1.9055255538851685,7.623184039972311,5.717658486087142,477.88627837732776,595.6888092385303
1.7089518906325076E12,2.608695652173913,-6.445652173913043,1.934782608695652,-1.906751621574357,7.6264295132672215,5.719677891692864,477.88584564755513,595.6814528323952
1.7089518906520393E12,2.619565217391304,-6.456521739130435,2.0217391304347827,-1.8771817537762827,7.633497432887249,5.756315679110966,477.88425897172203,595.6936413876583
1.7089518906715708E12,2.684782608695652,-6.510869565217391,2.119565217391304,-1.8590792249535593,7.642945366256877,5.783866141303318,477.884908066381,595.7152057546623
1.7089518906911025E12,2.619565217391304,-6.521739130434782,2.0217391304347827,-1.8220808293915784,7.654845435004883,5.8327646056133045,477.88570140429755,595.7285482559859
1.708951890710634E12,2.684782608695652,-6.510869565217391,2.0,-1.8081613550378508,7.695233547119326,5.887072192081475,477.8873602017594,595.7405925679914
1.7089518907301658E12,2.630434782608696,-6.456521739130435,2.0652173913043477,-1.8051322466292676,7.7100906026471385,5.904958356017871,477.88808141804714,595.7526368799969
1.7089518907496975E12,2.6630434782608696,-6.456521739130435,2.0543478260869565,-1.8123444095068468,7.7159324545779775,5.903588045071131,477.88844202619106,595.7152778762911
1.708951890769229E12,2.652173913043478,-6.434782608695652,2.0869565217391304,-1.8500640213565853,7.714706386888789,5.8646423655322035,477.889740215509,595.6798661565622
1.7089518907887607E12,2.6739130434782608,-6.434782608695652,2.0652173913043477,-1.8940582149098177,7.676337680380069,5.782279465470251,477.89010082365286,595.6642878847466
1.7089518908082925E12,2.6956521739130435,-6.456521739130435,2.010869565217391,-1.9066794999455812,7.662995179056548,5.756315679110966,477.88894687759245,595.6629175737999
1.708951890827824E12,2.684782608695652,-6.489130434782608,2.119565217391304,-1.9189401768374654,7.678861937387222,5.759921760549756,477.89111052645575,595.6592393707323
1.7089518908473557E12,2.6630434782608696,-6.456521739130435,2.010869565217391,-1.9110067976721286,7.6710006798506605,5.759993882178532,477.8918317427435,595.6632060603149
1.7089518908668872E12,2.652173913043478,-6.434782608695652,2.0217391304347827,-1.9037225131657736,7.6905456412488995,5.7868231280831255,477.89565418906864,595.6541187350892
1.708951890886419E12,2.7065217391304346,-6.380434782608695,2.0543478260869565,-1.892904268849405,7.694800817346671,5.8018965484972655,477.89435599975064,595.6472671803555
1.7089518909059507E12,2.684782608695652,-6.413043478260869,2.0543478260869565,-1.8925436607055262,7.686867438181334,5.794323777475808,477.8941396348643,595.6440217070606
1.7089518909254822E12,2.6956521739130435,-6.478260869565217,2.0760869565217392,-1.8858363492293775,7.684920154204387,5.79908380497501,477.8934184185766,595.6387568281599
1.708951890945014E12,2.684782608695652,-6.478260869565217,2.0978260869565215,-1.893986093281042,7.673452815229037,5.779466721947995,477.894572364637,595.6395501660764
1.7089518909645457E12,2.6630434782608696,-6.467391304347826,2.0760869565217392,-1.8945630663112483,7.679655275303755,5.7850922089925065,477.89377902672044,595.6359440846377
1.7089518909840771E12,2.684782608695652,-6.478260869565217,2.043478260869565,-1.9019194724463788,7.693718992915034,5.791799520468655,477.8945002430082,595.6334919492593
1.708951891003609E12,2.6739130434782608,-6.445652173913043,2.0543478260869565,-1.8949236744551272,7.683982573030303,5.789058898575175,477.89377902672044,595.6300301110781
1.7089518910231404E12,2.641304347826087,-6.423913043478261,2.0543478260869565,-1.8955006474853335,7.7087202917003985,5.8132196442150645,477.8942838781219,595.6258470566091
1.708951891042672E12,2.6630434782608696,-6.434782608695652,2.043478260869565,-1.889875160440822,7.711893643366533,5.822018482925712,477.89406751323554,595.6275779756998
1.7089518910622039E12,2.652173913043478,-6.445652173913043,2.0543478260869565,-1.8814369298740543,7.7372083350668355,5.855771405192781,477.89312993206147,595.6297416245629
1.7089518910817354E12,2.684782608695652,-6.467391304347826,2.043478260869565,-1.871195658587892,7.751055687791788,5.879860029203896,477.8927693239176,595.6188512586178
1.708951891101267E12,2.652173913043478,-6.478260869565217,2.0652173913043477,-1.8437173180243158,7.754517525973026,5.91080020794871,477.89226447251616,595.6114948524827
1.7089518911207988E12,2.684782608695652,-6.489130434782608,2.0543478260869565,-1.864632590369295,7.715643968062874,5.851011377693579,477.89349054020533,595.6200052046783
1.7089518911403303E12,2.630434782608696,-6.467391304347826,2.043478260869565,-1.889875160440822,7.714706386888789,5.824831226447968,477.8924087157737,595.6082493791878
1.708951891159862E12,2.641304347826087,-6.456521739130435,2.010869565217391,-1.8931206337357325,7.712903346169394,5.819782712433662,477.8920481076298,595.6029123786584
1.7089518911793936E12,2.641304347826087,-6.434782608695652,2.032608695652174,-1.9024964454765851,7.713768805714704,5.811272360238118,477.89111052645575,595.6096918117634
1.7089518911989253E12,2.641304347826087,-6.434782608695652,2.043478260869565,-1.9495197474384007,7.801468706306065,5.8519489588676645,477.89262508066,595.6299579894493
1.708951891218457E12,2.6630434782608696,-6.489130434782608,2.032608695652174,-1.8393900202977682,7.950183504841746,6.1107934845439775,477.89125476971327,595.6804431295924
1.7089518912379885E12,2.608695652173913,-6.467391304347826,2.0,-1.5097941767924044,7.817119099750411,6.307324922958007,477.893274175319,595.2650225478438
1.7089518912575203E12,2.6630434782608696,-6.478260869565217,1.9782608695652173,-1.9258638531999415,7.53288776074502,5.607023907545079,477.8934184185766,595.3397405552555
1.708951891277052E12,2.641304347826087,-6.413043478260869,1.934782608695652,-1.9211038257007393,7.6950171822329985,5.773913356532259,477.8907499183119,595.6026238921432
1.7089518912965835E12,2.5869565217391304,-6.489130434782608,2.0869565217391304,-1.9089873920664064,7.692565046854622,5.783577654788215,477.89082203994064,595.6412810851671
1.7089518913161152E12,2.652173913043478,-6.489130434782608,1.9891304347826086,-1.890884863243683,7.707422102382434,5.816537239138752,477.8894517289939,595.6583017895582
1.7089518913356467E12,2.641304347826087,-6.510869565217391,2.010869565217391,-1.8962218637730914,7.721341576736162,5.825119712963071,477.88865839107734,595.6571478434978
1.7089518913551785E12,2.641304347826087,-6.456521739130435,1.9782608695652173,-1.8779750916928164,7.7087202917003985,5.830745200007582,477.8882256613047,595.6553448027784
1.7089518913747102E12,2.608695652173913,-6.434782608695652,1.9130434782608696,-1.8691762529821698,7.725091901432503,5.855915648450333,477.88714383687307,595.6566429920963
1.7089518913942417E12,2.619565217391304,-6.423913043478261,2.043478260869565,-1.8637671308239856,7.715139116661444,5.851371985837458,477.8876486882745,595.6684709392156
1.7089518914137734E12,2.641304347826087,-6.521739130434782,2.043478260869565,-1.8368657632906156,7.7354774159762165,5.898611652685601,477.88541291778245,595.6900353062196
1.708951891433305E12,2.641304347826087,-6.532608695652174,1.9021739130434783,-1.8128492609082774,7.751199931049339,5.9383506701410615,477.8850523096386,595.710157240648
1.7089518914528367E12,2.641304347826087,-6.5,1.9456521739130435,-1.7801060414440681,7.779111001385569,5.999004959941502,477.88483594475224,595.7132584706853
1.7089518914723684E12,2.608695652173913,-6.489130434782608,1.9891304347826086,-1.7842890959130642,7.790073488959491,6.005784393046427,477.8843310933508,595.6933529011433
1.7089518914919E12,2.608695652173913,-6.478260869565217,1.9565217391304348,-1.7952515834869842,7.779255244643122,5.984003661156137,477.8850523096386,595.6637109117164
1.7089518915114316E12,2.619565217391304,-6.467391304347826,1.9456521739130435,-1.8528767648788411,7.749757498473824,5.896880733594982,477.8823116877451,595.6408483553945
1.7089518915309634E12,2.641304347826087,-6.489130434782608,1.967391304347826,-1.8685271583231877,7.725164023061279,5.856636864738091,477.8820953228588,595.6377471253571
1.7089518915504949E12,2.641304347826087,-6.456521739130435,1.9021739130434783,-1.9058861620290475,7.710162724275914,5.804276562246867,477.88512443126734,595.6215918805113
1.7089518915700266E12,2.684782608695652,-6.489130434782608,1.9782608695652173,-1.9090595136951822,7.705907548178143,5.79684803448296,477.882672295889,595.6209427858523
1.708951891589558E12,2.608695652173913,-6.478260869565217,1.9130434782608696,-1.8969430800608493,7.698839628558115,5.8018965484972655,477.8831771472904,595.6220246102839
1.7089518916090898E12,2.630434782608696,-6.478260869565217,1.9130434782608696,-1.8968709584320735,7.7231446174555565,5.826273659023483,477.881374106571,595.6143797176337
1.7089518916286216E12,2.619565217391304,-6.445652173913043,1.9239130434782608,-1.8961497421443156,7.7001378178760795,5.8039880757317635,477.8816625930861,595.6099081766496
1.708951891648153E12,2.630434782608696,-6.456521739130435,1.8695652173913042,-1.8899472820695977,7.708503926814071,5.818556644744474,477.8820953228588,595.6019747974843
1.7089518916676848E12,2.6630434782608696,-6.478260869565217,1.9130434782608696,-1.8949236744551272,7.715427603176547,5.82050392872142,477.8815183498286,595.6005323649088
1.7089518916872166E12,2.652173913043478,-6.478260869565217,1.9456521739130435,-1.893986093281042,7.703960264201196,5.809974170920154,477.87856136304873,595.6018305542267
1.708951891706748E12,2.6630434782608696,-6.5,1.967391304347826,-1.9036503915369978,7.705402696776712,5.801752305239714,477.8796431874804,595.5998832702498
1.7089518917262798E12,2.641304347826087,-6.456521739130435,1.9239130434782608,-1.8918224444177683,7.69790204738403,5.806079602966261,477.88072501191203,595.5864686472975
1.7089518917458113E12,2.630434782608696,-6.456521739130435,1.934782608695652,-1.9024964454765851,7.6991281150732185,5.796631669596633,477.8792825793365,595.5860359175249
1.708951891765343E12,2.619565217391304,-6.467391304347826,1.9130434782608696,-1.9042994861959799,7.713047589426946,5.808748103230966,477.87921045770776,595.5947626346067
1.7089518917848748E12,2.630434782608696,-6.445652173913043,1.9239130434782608,-1.9006934047571904,7.7131918326844975,5.812498427927307,477.87942682259404,595.5909401882816
1.7089518918044062E12,2.6630434782608696,-6.467391304347826,1.9891304347826086,-1.9019915940751546,7.73627075389275,5.834279159817596,477.87848924141997,595.5791122411624
1.708951891823938E12,2.652173913043478,-6.467391304347826,1.9239130434782608,-1.890884863243683,7.744348376315639,5.853463513071956,477.8779843900185,595.5979359862729
1.7089518918434697E12,2.641304347826087,-6.489130434782608,1.934782608695652,-1.855689508401097,7.784015272142324,5.928325763741227,477.8768304439581,595.5762994976401
1.7089518918630012E12,2.641304347826087,-6.489130434782608,1.9456521739130435,-1.8583580086658014,7.746872633322792,5.888514624656991,477.8766862007006,595.5772370788142
1.708951891882533E12,2.641304347826087,-6.467391304347826,1.9239130434782608,-1.868455036694412,7.738867132528679,5.870412095834267,477.876541957443,595.579544970935
1.7089518919020645E12,2.641304347826087,-6.445652173913043,1.9239130434782608,-1.9022800805902578,7.740165321846643,5.8378852412563855,477.8774074169883,595.5818528630558
1.7089518919215962E12,2.6739130434782608,-6.456521739130435,1.967391304347826,-1.911511649073559,7.733674375256823,5.822162726183263,477.8748831599812,595.576011011125
1.708951891941128E12,2.652173913043478,-6.467391304347826,1.9565217391304348,-1.9291814481236278,7.75307509339751,5.823893645273882,477.87618134929915,595.5660582263539
1.7089518919606594E12,2.641304347826087,-6.478260869565217,1.9456521739130435,-1.9784405205774929,8.01862693054997,6.0401864099724785,477.8753880113826,595.6293088947904
1.7089518919801912E12,2.630434782608696,-6.489130434782608,1.9456521739130435,-1.5944649689751829,7.934388868139848,6.339923899164665,477.87560437626894,595.5051154500384
1.708951891999723E12,2.619565217391304,-6.467391304347826,1.9239130434782608,-1.8156620044305332,7.602340889256107,5.786678884825574,477.87747953861714,595.2088397990275
1.7089518920192544E12,2.652173913043478,-6.489130434782608,1.8695652173913042,-1.960482235012321,7.650878745422213,5.690396510409893,477.87618134929915,595.3833741406648
1.7089518920387861E12,2.619565217391304,-6.456521739130435,1.9456521739130435,-1.9372590705465165,7.757907242525488,5.820648171978972,477.8748831599812,595.5737031190042
1.7089518920583176E12,2.5978260869565215,-6.456521739130435,2.0,-1.9299747860401615,7.76627335146348,5.836298565423318,477.8754601330114,595.5817086197983
1.7089518920778494E12,2.652173913043478,-6.489130434782608,1.9130434782608696,-1.9167765279741917,7.770023676159821,5.853247148185629,477.87560437626894,595.5905074585089
1.708951892097381E12,2.684782608695652,-6.467391304347826,1.9130434782608696,-1.9115837707023349,7.780697677218638,5.8691139065163025,477.8742340653222,595.6071675547562
1.7089518921169126E12,2.608695652173913,-6.434782608695652,1.8478260869565217,-1.9019194724463788,7.765840621690824,5.863921149244446,477.8752437681251,595.6047875410065
1.7089518921364443E12,2.5652173913043477,-6.456521739130435,1.9565217391304348,-1.8921830525616472,7.773413392712284,5.881230340150636,477.8731522408906,595.6251979619501
1.7089518921559758E12,2.608695652173913,-6.434782608695652,1.8478260869565217,-1.8738641588525964,7.792525624337867,5.918661465485271,477.87495528160997,595.6238276510034
1.7089518921755076E12,2.641304347826087,-6.510869565217391,1.934782608695652,-1.8504246295004643,7.813008166910192,5.962583537409728,477.8732964841481,595.674745520919
1.7089518921950393E12,2.6739130434782608,-6.510869565217391,1.8695652173913042,-1.8284275327238482,7.85981510398568,6.031387571261832,477.87322436251935,595.6662351687236
1.7089518922145708E12,2.652173913043478,-6.489130434782608,1.8804347826086956,-1.8159504909456363,7.889168606897427,6.073218115951791,477.8727195111179,595.6666678984961
1.7089518922341025E12,2.5869565217391304,-6.456521739130435,1.891304347826087,-1.8150850314003268,7.89991472958502,6.084829698184693,477.87055586225466,595.647411423613
1.7089518922536343E12,2.619565217391304,-6.445652173913043,1.934782608695652,-1.8400391149567503,7.886644349890274,6.046605234933524,477.87221465971646,595.621375515625
1.7089518922731658E12,2.641304347826087,-6.456521739130435,1.934782608695652,-1.8882163629789785,7.8660896856891735,5.977873322710195,477.87163768668626,595.577958295102
1.7089518922926975E12,2.641304347826087,-6.510869565217391,1.9239130434782608,-1.908771027180079,7.8639981584546765,5.955227131274597,477.87120495691363,595.5635339693468
1.708951892312229E12,2.6630434782608696,-6.467391304347826,1.8695652173913042,-1.9243492989956499,7.83291373645231,5.90856443745666,477.87178192994384,595.5680776319597
1.7089518923317607E12,2.5978260869565215,-6.456521739130435,1.9565217391304348,-1.9262965829725962,7.8469053324348135,5.920608749462217,477.87077222714095,595.5558169550678
1.7089518923512925E12,2.5760869565217392,-6.478260869565217,1.891304347826087,-1.9110067976721286,7.839981656072338,5.928974858400209,477.8717098083151,595.5656254965813
1.708951892370824E12,2.608695652173913,-6.445652173913043,1.8804347826086956,-1.9255032450560625,7.877701267922077,5.952198022866014,477.87163768668626,595.5588460634764
1.7089518923903557E12,2.5978260869565215,-6.478260869565217,1.9021739130434783,-1.9171371361180707,7.8811631061033145,5.964025969985244,477.8721425380877,595.5530763331743
1.7089518924098875E12,2.608695652173913,-6.478260869565217,1.8695652173913042,-1.914973487254797,7.88347099822414,5.968497510969343,477.87026737573956,595.5505520761672
1.708951892429419E12,2.5869565217391304,-6.510869565217391,1.967391304347826,-1.9228347447913583,7.870633348302049,5.947798603510691,477.8712770785424,595.54802781916
1.7089518924489507E12,2.641304347826087,-6.521739130434782,1.9565217391304348,-1.9247099071395288,7.870561226673273,5.945851319533745,477.87077222714095,595.5442774944637
1.7089518924684822E12,2.619565217391304,-6.521739130434782,1.891304347826087,-1.9307681239566952,7.87164305110491,5.940874927148215,477.8734407274057,595.5377865478738
1.708951892488014E12,2.608695652173913,-6.510869565217391,1.967391304347826,-1.9286044750934215,7.883038268451485,5.9544337933580636,477.8718540515726,595.5341083448063
1.7089518925075457E12,2.608695652173913,-6.456521739130435,1.9239130434782608,-1.9230511096776857,7.863276942166919,5.940225832489233,477.87077222714095,595.5191791676497
1.7089518925270771E12,2.641304347826087,-6.456521739130435,1.9021739130434783,-1.9354560298271215,7.862411482621608,5.926955452794487,477.87106071365605,595.5193234109072
1.708951892546609E12,2.608695652173913,-6.456521739130435,1.9130434782608696,-1.9357445163422249,7.863998158454676,5.928253642112451,477.8704116189971,595.5189628027633
1.7089518925661406E12,2.630434782608696,-6.467391304347826,1.9456521739130435,-1.9309844888430225,7.874455794627166,5.9434713057841435,477.8709164703985,595.5162943024986
1.708951892585672E12,2.641304347826087,-6.5,1.9021739130434783,-1.9219692852460488,7.909362662954648,5.9873933777085995,477.87293587600425,595.5199003839374
1.7089518926052039E12,2.608695652173913,-6.489130434782608,1.9565217391304348,-1.9089873920664064,7.893351661366423,5.984364269300016,477.87351284903446,595.5253816277244
1.7089518926247354E12,2.630434782608696,-6.478260869565217,1.9239130434782608,-1.8786241863517985,7.917800893521416,6.039176707169617,477.87163768668626,595.5170155187864
1.708951892644267E12,2.630434782608696,-6.5,1.9239130434782608,-1.886701808774687,7.868902429211429,5.982200620436743,477.8737292139208,595.5080003151894
1.7089518926637988E12,2.608695652173913,-6.5,1.9239130434782608,-1.9172092577468465,7.864214523341004,5.947005265594157,477.87235890297404,595.4977590439033
1.7089518926833303E12,2.630434782608696,-6.478260869565217,1.9021739130434783,-1.9395669626673417,7.8681812129236715,5.92861425025633,477.8739455788071,595.4762667985281
1.708951892702862E12,2.6630434782608696,-6.489130434782608,1.9565217391304348,-1.942235462932046,7.875465497430026,5.9332300344979805,477.87235890297404,595.4782862041338
1.7089518927223936E12,2.630434782608696,-6.478260869565217,2.0217391304347827,-1.9852199536824173,7.962299938476079,5.9770799847936615,477.8752437681251,595.4986245034486
1.7089518927419253E12,2.652173913043478,-6.5,1.967391304347826,-1.891894566046544,8.145777362081692,6.253882796035147,477.8741619436934,595.5536533062045
1.708951892761457E12,2.630434782608696,-6.489130434782608,1.9130434782608696,-1.4503659546811527,7.921262731702654,6.470896777021501,477.8745225518373,595.1286405478288
1.7089518927809885E12,2.641304347826087,-6.489130434782608,2.0,-1.9568040319447557,7.747305363095446,5.790501331150691,477.87704680884445,595.1742214172151
1.7089518928005203E12,2.6630434782608696,-6.456521739130435,1.9891304347826086,-1.9605543566410968,7.888303147352117,5.9277487907110205,477.8772631737308,595.4683334193628
1.708951892820052E12,2.608695652173913,-6.489130434782608,2.0543478260869565,-1.933580867478951,7.908497203409339,5.974916335930388,477.87690256558693,595.4988408683349
1.7089518928395835E12,2.630434782608696,-6.5,1.934782608695652,-1.9244214206244257,7.915637244658142,5.991215824033716,477.8768304439581,595.5082888017046
1.7089518928591152E12,2.630434782608696,-6.489130434782608,2.010869565217391,-1.9053091889988412,7.931143394844938,6.025834205846096,477.8815183498286,595.5233622221186
1.7089518928786467E12,2.641304347826087,-6.478260869565217,2.032608695652174,-1.898746120780244,7.925517907800426,6.026771787020182,477.8818068363437,595.531944695943
1.7089518928981785E12,2.5978260869565215,-6.478260869565217,1.9565217391304348,-1.87602780771587,7.945928328743975,6.069900521028105,477.88072501191203,595.5474508461298
1.7089518929177102E12,2.619565217391304,-6.489130434782608,2.010869565217391,-1.8571319409766127,7.950255626470522,6.093123685493909,477.88144622819976,595.5503357112808
1.7089518929372417E12,2.641304347826087,-6.5,2.043478260869565,-1.8272014650346597,7.97153150695938,6.144330041924721,477.8828886607753,595.5720443215423
1.7089518929567734E12,2.641304347826087,-6.532608695652174,1.967391304347826,-1.7980643270092402,7.97427212885286,6.17620780184362,477.8841147284645,595.5993784188483
1.7089518929763052E12,2.641304347826087,-6.510869565217391,2.0,-1.7835678796253063,8.018771173807522,6.235203294182217,477.88425897172203,595.5977917430153
1.7089518929958367E12,2.619565217391304,-6.467391304347826,1.9782608695652173,-1.7679174861809597,8.04026341918271,6.272345933001749,477.8840426068357,595.5848098498357
1.7089518930153684E12,2.641304347826087,-6.445652173913043,1.9565217391304348,-1.7800339198152924,8.032834891418803,6.25280097160351,477.88584564755513,595.5616588069986
1.7089518930349E12,2.684782608695652,-6.423913043478261,2.0,-1.8117674364766405,8.004346848052366,6.192579411575725,477.8882256613047,595.5237228302626
1.7089518930544316E12,2.6956521739130435,-6.445652173913043,2.0543478260869565,-1.856699211203958,8.006366253658086,6.149667042454129,477.8864947422141,595.4989129899637
1.7089518930739634E12,2.6956521739130435,-6.434782608695652,1.9891304347826086,-1.8740805237389238,7.972252723247138,6.098172199508214,477.88873051270616,595.4984802601911
1.7089518930934949E12,2.6956521739130435,-6.5,2.0217391304347827,-1.8696811043836004,7.960208411241581,6.090527306857981,477.8870717152443,595.5036008958341
1.7089518931130266E12,2.630434782608696,-6.456521739130435,2.0,-1.8752344697993364,7.983792183851264,6.108557714051928,477.88873051270616,595.5017978551148
1.7089518931325583E12,2.641304347826087,-6.445652173913043,1.9456521739130435,-1.8659307796872593,7.986677049002296,6.1207462693150365,477.8885862694486,595.5071348556442
1.7089518931520898E12,2.6739130434782608,-6.423913043478261,2.0217391304347827,-1.8589349816960077,7.971170898815501,6.112235917119493,477.88873051270616,595.5042499904931
1.7089518931716216E12,2.6630434782608696,-6.478260869565217,2.032608695652174,-1.8735035507087172,8.00766444297605,6.134160892267334,477.8911826480845,595.5067742475003
1.708951893191153E12,2.652173913043478,-6.489130434782608,1.9782608695652173,-1.8727102127921835,8.015453578883836,6.142743366091653,477.8908941615694,595.5064857609851
1.7089518932106848E12,2.630434782608696,-6.521739130434782,2.032608695652174,-1.878119334950368,8.003337145249503,6.1252178102991355,477.8915432562284,595.5091542612498
1.7089518932302166E12,2.652173913043478,-6.478260869565217,2.010869565217391,-1.8676616987778782,7.9915813197590495,6.123919620981171,477.8915432562284,595.497542679017
1.708951893249748E12,2.6630434782608696,-6.478260869565217,2.032608695652174,-1.8823023894193638,8.00030803684092,6.1180056474215565,477.8947166078945,595.5040336256068
1.7089518932692798E12,2.652173913043478,-6.478260869565217,2.0652173913043477,-1.8810763217301754,8.0119917407026,6.130915418972424,477.89550994581106,595.5082166800757
1.7089518932888115E12,2.630434782608696,-6.489130434782608,2.043478260869565,-1.8913175930163377,8.017761471004663,6.126443877988325,477.89522145929595,595.5048269635233
1.708951893308343E12,2.5869565217391304,-6.445652173913043,1.9782608695652173,-1.886341200630808,8.007448078089723,6.1211068774589155,477.8948608511521,595.5077839503031
1.7089518933278748E12,2.630434782608696,-6.456521739130435,2.0543478260869565,-1.8900194036983735,8.0393979596374,6.149378555939026,477.8968802567578,595.5025190714025
1.7089518933474062E12,2.652173913043478,-6.445652173913043,2.043478260869565,-1.8792732810107806,8.045239811568239,6.165966530557458,477.8954378241823,595.5149239915519
1.708951893366938E12,2.619565217391304,-6.467391304347826,2.032608695652174,-1.8685271583231877,8.048124676719269,6.179597518396082,477.8960147972125,595.5000669360242
1.7089518933864697E12,2.641304347826087,-6.478260869565217,2.032608695652174,-1.8382360742373556,8.068390854405267,6.230154780167911,477.8965917702427,595.4874456509883
1.7089518934060012E12,2.619565217391304,-6.456521739130435,2.0217391304347827,-1.8569876977190611,8.041633730129448,6.184646032410387,477.89846693259085,595.4857868535265
1.708951893425533E12,2.630434782608696,-6.434782608695652,2.010869565217391,-1.862613184763573,8.042427068045981,6.179813883282409,477.89796208118946,595.4804498529971
1.7089518934450645E12,2.630434782608696,-6.413043478260869,2.032608695652174,-1.8919666876753198,8.040984635470467,6.149017947795147,477.8969523783866,595.4840559344359
1.7089518934645962E12,2.608695652173913,-6.423913043478261,2.0217391304347827,-1.9027128103629125,8.047187095545185,6.144474285182272,477.89731298653044,595.4766274066719
1.708951893484128E12,2.619565217391304,-6.445652173913043,2.0543478260869565,-1.9516112746728989,8.17303933775894,6.221428063086041,477.89666389187147,595.5124718561735
1.7089518935036594E12,2.619565217391304,-6.489130434782608,2.043478260869565,-1.7775817844369155,8.230664519150796,6.453082734713881,477.8969523783866,595.5695200645351
1.7089518935231912E12,2.630434782608696,-6.467391304347826,2.043478260869565,-1.5626593306850591,8.098177087089669,6.53551775640461,477.89817844607575,595.1645571189591
1.708951893542723E12,2.652173913043478,-6.456521739130435,1.9891304347826086,-1.9332923809638478,7.913112987650989,5.9798206066871415,477.8998372435376,595.2362460179622
1.7089518935622544E12,2.652173913043478,-6.413043478260869,1.9891304347826086,-1.9237002043366678,8.072934517018142,6.149234312681474,477.897457229788,595.466314013757
1.7089518935817861E12,2.532608695652174,-6.434782608695652,2.141304347826087,-1.9078334460059938,8.08461822087982,6.176784774873826,477.8969523783866,595.4989851115924
1.7089518936013176E12,2.608695652173913,-6.489130434782608,2.0217391304347827,-1.904227364567204,8.090315829553107,6.186088464985903,477.89933239213616,595.5010045171982
1.7089518936208494E12,2.608695652173913,-6.5,2.010869565217391,-1.8919666876753198,8.117361440344029,6.225394752668709,477.89904390562106,595.5002833009104
1.708951893640381E12,2.630434782608696,-6.467391304347826,2.032608695652174,-1.8879278764638754,8.10877896651971,6.2208510900558345,477.89889966236353,595.5050433284097
1.7089518936599126E12,2.5978260869565215,-6.413043478260869,1.9891304347826086,-1.8665077527174656,8.112457169587275,6.245949416869809,477.89760147304554,595.5301416552236
1.7089518936794443E12,2.608695652173913,-6.489130434782608,2.0760869565217392,-1.8611707521880572,8.127169981857538,6.26599922966948,477.8969523783866,595.5283386145043
1.708951893698976E12,2.630434782608696,-6.521739130434782,2.0543478260869565,-1.831240276246104,8.158687133632558,6.3274468573864535,477.89702450001533,595.5429793051456
1.7089518937185076E12,2.5978260869565215,-6.521739130434782,1.9782608695652173,-1.8065025575760076,8.164456863934621,6.357954306358613,477.89637540535637,595.5658418614677
1.7089518937380393E12,2.619565217391304,-6.489130434782608,1.9565217391304348,-1.7922945967071768,8.190276407036354,6.397981810329177,477.89673601350023,595.5666351993841
1.7089518937575708E12,2.5869565217391304,-6.423913043478261,1.9891304347826086,-1.7878951773518537,8.2196299099481,6.431734732596246,477.8944281213794,595.5539417927196
1.7089518937771025E12,2.608695652173913,-6.434782608695652,2.032608695652174,-1.7997952460998592,8.21739413945605,6.417598893356192,477.89623116209884,595.529348317307
1.7089518937966343E12,2.619565217391304,-6.467391304347826,2.032608695652174,-1.8433567098804369,8.171308418668321,6.327951708787884,477.89565418906864,595.5030960444327
1.7089518938161658E12,2.619565217391304,-6.489130434782608,2.010869565217391,-1.878119334950368,8.165538688366258,6.287419353415889,477.8944281213794,595.4787910555352
1.7089518938356975E12,2.641304347826087,-6.5,1.9456521739130435,-1.8902357685847009,8.131930009356738,6.241694240772038,477.8951493376672,595.472444352203
1.7089518938552292E12,2.652173913043478,-6.5,2.032608695652174,-1.8914618362738893,8.124573603221608,6.233111766947719,477.89507721603843,595.4722279873166
1.7089518938747607E12,2.5869565217391304,-6.445652173913043,1.967391304347826,-1.885692105971826,8.136401550340839,6.250709444369012,477.8924808374025,595.4632849053485
1.7089518938942925E12,2.5978260869565215,-6.467391304347826,1.9456521739130435,-1.8864854438883596,8.137771861287579,6.251286417399219,477.89349054020533,595.4642224865225
1.708951893913824E12,2.619565217391304,-6.456521739130435,2.043478260869565,-1.883239970593449,8.141377942726368,6.258137972132919,477.89312993206147,595.4553515261831
1.7089518939333557E12,2.630434782608696,-6.5,1.9565217391304348,-1.8794175242683322,8.129549995607137,6.250132471338805,477.8921923508874,595.4610491348564
1.7089518939528875E12,2.608695652173913,-6.489130434782608,1.967391304347826,-1.8857642276006017,8.149599808406808,6.263835580806206,477.89312993206147,595.4576594183039
1.708951893972419E12,2.641304347826087,-6.489130434782608,1.9782608695652173,-1.8896587955544946,8.14289249693066,6.253233701376165,477.89349054020533,595.4490048228508
1.7089518939919507E12,2.619565217391304,-6.5,2.010869565217391,-1.8785520647230227,8.125439062766917,6.246886998043895,477.89197598600106,595.4407829571704
1.7089518940114824E12,2.619565217391304,-6.489130434782608,2.0217391304347827,-1.8864133222595838,8.106903804171539,6.2204904819119555,477.8904614317968,595.4490769444797
1.708951894031014E12,2.5978260869565215,-6.478260869565217,1.967391304347826,-1.8878557548350996,8.11563052125341,6.22777476641831,477.8898844587666,595.4385471866783
1.7089518940505457E12,2.608695652173913,-6.434782608695652,1.934782608695652,-1.887711511577548,8.114692940079324,6.226981428501777,477.89038931016796,595.4236180095218
1.7089518940700771E12,2.608695652173913,-6.445652173913043,1.9782608695652173,-1.8720611181332014,8.113611115647688,6.241549997514486,477.89125476971327,595.4351574701259
1.708951894089609E12,2.641304347826087,-6.456521739130435,2.0217391304347827,-1.8621804549909182,8.132362739129395,6.270182284138476,477.8891632424788,595.4252768069836
1.7089518941091406E12,2.608695652173913,-6.489130434782608,1.967391304347826,-1.8287881408677271,8.13806034780268,6.309272206934954,477.8904614317968,595.4272240909605
1.708951894128672E12,2.630434782608696,-6.5,1.967391304347826,-1.8099643957572455,8.13055969841,6.3205953026527535,477.8891632424788,595.4159009952427
1.7089518941482039E12,2.5869565217391304,-6.5,1.9891304347826086,-1.8406882096157324,8.100629222468045,6.259941012852313,477.88844202619106,595.4263586314153
1.7089518941677354E12,2.608695652173913,-6.456521739130435,1.967391304347826,-1.8589349816960077,8.091181289098417,6.232246307402409,477.88786505316085,595.4239786176656
1.708951894187267E12,2.5978260869565215,-6.456521739130435,1.891304347826087,-1.8814369298740543,8.093921910991897,6.212484981117843,477.8885862694486,595.4215986039161
1.7089518942067988E12,2.630434782608696,-6.467391304347826,1.9565217391304348,-1.888072119721427,8.116351737541168,6.228279617819741,477.88685535035796,595.4159009952427
1.7089518942263303E12,2.5869565217391304,-6.467391304347826,1.9565217391304348,-1.927017799260354,8.208739544002956,6.281721744742602,477.88952385062265,595.4364556594438
1.708951894245862E12,2.619565217391304,-6.510869565217391,1.967391304347826,-1.5842958193177963,8.298386728571264,6.714090909253468,477.88541291778245,595.3796238159686
1.7089518942653938E12,2.608695652173913,-6.510869565217391,1.9456521739130435,-1.468901213276531,8.181693933212035,6.7127927199355035,477.88714383687307,595.04137337701
1.7089518942849253E12,2.630434782608696,-6.467391304347826,1.8695652173913042,-1.917065014489295,8.012712956990356,6.095647942501062,477.8882977829335,595.241150288719
1.708951894304457E12,2.641304347826087,-6.445652173913043,1.858695652173913,-1.9044437294535315,8.119452967578527,6.2150092381249955,477.8860620124414,595.3892159925957
1.7089518943239885E12,2.5760869565217392,-6.467391304347826,2.0543478260869565,-1.8810763217301754,8.12435723833528,6.243280916605105,477.8850523096386,595.4246998339534
1.7089518943435203E12,2.619565217391304,-6.489130434782608,1.9565217391304348,-1.872565969534632,8.138925807347992,6.266359837813359,477.884908066381,595.4315513886871
1.708951894363052E12,2.652173913043478,-6.478260869565217,1.9239130434782608,-1.8645604687405193,8.131208793068982,6.266648324328462,477.88389836357817,595.4410714436855
1.7089518943825835E12,2.608695652173913,-6.456521739130435,1.858695652173913,-1.8621804549909182,8.154143471019683,6.291963016028764,477.8851965528961,595.4459757144423
1.7089518944021152E12,2.5869565217391304,-6.445652173913043,1.858695652173913,-1.849487048326379,8.147436159543533,6.297949111217155,477.88303290403286,595.4567939587587
1.708951894421647E12,2.608695652173913,-6.467391304347826,1.9456521739130435,-1.8314566411324313,8.167846580487083,6.3363899393546514,477.8831771472904,595.4780698392475
1.7089518944411785E12,2.619565217391304,-6.489130434782608,1.9565217391304348,-1.8109740985601066,8.159768958064195,6.348794859504087,477.88101349842714,595.482397136974
1.7089518944607102E12,2.630434782608696,-6.521739130434782,1.858695652173913,-1.7868854745489926,8.207441354684992,6.420555880135999,477.88101349842714,595.499489962994
1.7089518944802417E12,2.608695652173913,-6.554347826086956,1.8695652173913042,-1.7694320403852513,8.220423247864634,6.450991207479383,477.88101349842714,595.5042499904931
1.7089518944997734E12,2.5978260869565215,-6.467391304347826,1.8804347826086956,-1.7576762148947973,8.237588195513272,6.479911980618475,477.88043652539693,595.4819644072014
1.7089518945193052E12,2.5760869565217392,-6.456521739130435,1.891304347826087,-1.7907800425028852,8.224894788848733,6.4341147463458475,477.8823838093739,595.4295319830813
1.7089518945388367E12,2.619565217391304,-6.456521739130435,1.8804347826086956,-1.8269851001483324,8.193233393816161,6.366248293667828,477.88086925516956,595.4085445891076
1.7089518945583684E12,2.641304347826087,-6.478260869565217,1.9021739130434783,-1.870113834156255,8.156307119882957,6.286193285726701,477.88101349842714,595.395562695928
1.7089518945779001E12,2.619565217391304,-6.467391304347826,1.858695652173913,-1.8794175242683322,8.132290617500619,6.252873093232286,477.8796431874804,595.3891438709669
1.7089518945974316E12,2.641304347826087,-6.5,1.891304347826087,-1.8770375105187311,8.119957818979957,6.242920308461226,477.87921045770776,595.4091936837666
1.7089518946169634E12,2.619565217391304,-6.434782608695652,1.8695652173913042,-1.8756671995719911,8.139935510150853,6.264268310578861,477.877840146761,595.4076070079335
1.7089518946364949E12,2.608695652173913,-6.478260869565217,1.8369565217391304,-1.877109632147507,8.128828779319381,6.251719147171873,477.87834499816245,595.4039288048659
1.7089518946560266E12,2.5869565217391304,-6.478260869565217,1.891304347826087,-1.8741526453676995,8.13005484700857,6.255902201640869,477.8790662144502,595.4054433590703
1.7089518946755583E12,2.619565217391304,-6.510869565217391,1.8804347826086956,-1.8734314290799414,8.128973022576933,6.25554159349699,477.8768304439581,595.4041451697523
1.7089518946950898E12,2.641304347826087,-6.478260869565217,1.8695652173913042,-1.8726380911634077,8.116063251026064,6.243425159862657,477.87827287653363,595.4111409677436
1.7089518947146216E12,2.630434782608696,-6.489130434782608,1.9130434782608696,-1.8740805237389238,8.095724951711292,6.221644427972368,477.8787777279351,595.4088330756227
1.7089518947341533E12,2.619565217391304,-6.521739130434782,1.9021739130434783,-1.8861969573732564,8.095220100309861,6.209023142936605,477.87719105210203,595.4213101174009
1.7089518947536848E12,2.630434782608696,-6.489130434782608,1.9021739130434783,-1.8799223756697627,8.098609816862323,6.218687441192561,477.87589286278404,595.4062366969868
1.7089518947732166E12,2.5978260869565215,-6.478260869565217,1.891304347826087,-1.8882163629789785,8.080218801524497,6.192002438545519,477.8772631737308,595.420011928083
1.708951894792748E12,2.5978260869565215,-6.467391304347826,1.8804347826086956,-1.8911012281300104,8.078992733835308,6.187891505705298,477.87589286278404,595.4169106980456
1.7089518948122798E12,2.5978260869565215,-6.467391304347826,1.891304347826087,-1.88424967339631,8.078992733835308,6.194743060438999,477.8784171197912,595.4117900624026
1.7089518948318115E12,2.641304347826087,-6.489130434782608,1.891304347826087,-1.8551846569996664,8.061539299671567,6.206354642671901,477.87437830857976,595.4362392945575
1.708951894851343E12,2.608695652173913,-6.456521739130435,1.9130434782608696,-1.8203499103009595,8.102792871331319,6.28244296103036,477.8759649844128,595.41546826547
1.7089518948708748E12,2.608695652173913,-6.467391304347826,1.8804347826086956,-1.8398948716991987,8.046610122514979,6.20671525081578,477.87473891672363,595.424844077211
1.7089518948904062E12,2.619565217391304,-6.467391304347826,1.8804347826086956,-1.8606659007866266,8.029156688351236,6.16849078756461,477.87747953861714,595.4212379957721
1.708951894909938E12,2.630434782608696,-6.478260869565217,1.891304347826087,-1.8903800118422525,8.025766971798776,6.135386959956523,477.87531588975384,595.420011928083
1.7089518949294697E12,2.619565217391304,-6.413043478260869,1.8478260869565217,-1.8999721884694325,8.013289930020562,6.11331774155113,477.8759649844128,595.4153961438413
1.7089518949490012E12,2.619565217391304,-6.478260869565217,1.934782608695652,-1.8996115803255536,8.035575513312283,6.135963932986729,477.8745225518373,595.4242671041808
1.708951894968533E12,2.630434782608696,-6.510869565217391,1.891304347826087,-1.8435009531379885,8.26658109028114,6.423080137143152,477.8754601330114,595.510380328939
1.7089518949880647E12,2.5978260869565215,-6.5,1.891304347826087,-1.444740467636641,8.318725027886037,6.873984560249396,477.8748110383524,595.1560467667636
1.7089518950075962E12,2.619565217391304,-6.478260869565217,1.8804347826086956,-1.9185795686935865,7.854766589971375,5.936187021277788,477.876541957443,595.13563634582
1.708951895027128E12,2.641304347826087,-6.413043478260869,1.8043478260869565,-1.9506015718700376,7.960496897756684,6.009895325886647,477.8750995248675,595.3461593802166
1.7089518950466594E12,2.5543478260869565,-6.434782608695652,1.9782608695652173,-1.900116431726984,8.001461982901333,6.101345551174349,477.8741619436934,595.4580200264478
1.7089518950661912E12,2.5978260869565215,-6.456521739130435,1.9239130434782608,-1.8885769711228575,8.000596523356023,6.112019552233166,477.87560437626894,595.4619867160305
1.708951895085723E12,2.608695652173913,-6.489130434782608,1.9021739130434783,-1.8823023894193638,7.998288631235198,6.115986241815834,477.87531588975384,595.4742473929224
1.7089518951052544E12,2.619565217391304,-6.467391304347826,1.858695652173913,-1.8752344697993364,8.000668644984799,6.125434175185463,477.87502740323873,595.4952347868962
1.7089518951247861E12,2.5652173913043477,-6.413043478260869,1.858695652173913,-1.8639113740815372,7.984585521767798,6.120674147686261,477.8755322546402,595.4897535431091
1.7089518951443179E12,2.5760869565217392,-6.467391304347826,1.967391304347826,-1.8468906696904506,8.00665474017319,6.15976407048274,477.87380133554956,595.5112457884843
1.7089518951638494E12,2.630434782608696,-6.489130434782608,1.891304347826087,-1.8352069658287724,8.019348146837729,6.184141181008957,477.8748831599812,595.5227852490884
1.708951895183381E12,2.641304347826087,-6.532608695652174,1.891304347826087,-1.7996510028423076,8.03370035096411,6.234049348121804,477.87134920017115,595.5606491041958
1.7089518952029126E12,2.619565217391304,-6.510869565217391,1.891304347826087,-1.7834957579965305,8.064640529708926,6.281144771712396,477.87293587600425,595.5684382401035
1.7089518952224443E12,2.5869565217391304,-6.489130434782608,1.8152173913043477,-1.7674126347795291,8.072646030503039,6.305233395723509,477.87221465971646,595.5589903067339
1.708951895241976E12,2.608695652173913,-6.445652173913043,1.8152173913043477,-1.7958285565171908,8.07452119285121,6.278692636334019,477.8733686057769,595.5350459259804
1.7089518952615076E12,2.5978260869565215,-6.434782608695652,1.9565217391304348,-1.8207105184448384,8.031464580472063,6.210754062027224,477.873007997633,595.5025911930312
1.7089518952810393E12,2.619565217391304,-6.467391304347826,1.9456521739130435,-1.866724117603793,8.011414767672392,6.1446906500686,477.8728637543755,595.478863177164
1.708951895300571E12,2.608695652173913,-6.467391304347826,1.8369565217391304,-1.8729986993072867,7.975426074913273,6.102427375605986,477.8731522408906,595.4603279185686
1.7089518953201025E12,2.641304347826087,-6.467391304347826,1.858695652173913,-1.8868460520322385,7.955448383742379,6.0686023317101405,477.8719982948302,595.4610491348564
1.7089518953396343E12,2.5869565217391304,-6.478260869565217,1.9239130434782608,-1.8848266464265164,7.958261127264635,6.073434480838118,477.87437830857976,595.4710740412562
1.7089518953591658E12,2.5869565217391304,-6.456521739130435,1.7934782608695652,-1.8850430113128438,7.964968438740783,6.0799254274279395,477.8728637543755,595.494946300381
1.7089518953786975E12,2.619565217391304,-6.478260869565217,1.8804347826086956,-1.8761720509734217,7.977229115632667,6.101057064659246,477.8725752678604,595.4935759894342
1.7089518953982292E12,2.5760869565217392,-6.445652173913043,1.8804347826086956,-1.8789126728669017,7.979825494268596,6.100912821401694,477.8722867813453,595.4961723680702
1.7089518954177607E12,2.5760869565217392,-6.478260869565217,1.858695652173913,-1.8810042001013996,7.97975337263982,6.098749172538421,477.8724310246028,595.5090821396211
1.7089518954372925E12,2.608695652173913,-6.489130434782608,1.9130434782608696,-1.8807157135862964,7.980474588927578,6.099758875341282,477.87207041645894,595.4965329762141
1.7089518954568242E12,2.608695652173913,-6.510869565217391,1.9130434782608696,-1.8820860245330364,7.961795087074648,6.079709062541612,477.8722867813453,595.4997063278802
1.7089518954763557E12,2.608695652173913,-6.5,1.891304347826087,-1.876388415859749,7.952202910447468,6.0758144945877195,477.87113283528487,595.497831165532
1.7089518954958875E12,2.5869565217391304,-6.489130434782608,1.9130434782608696,-1.885692105971826,7.961434478930769,6.075742372958944,477.873007997633,595.4989851115924
1.708951895515419E12,2.5869565217391304,-6.456521739130435,1.8695652173913042,-1.887350903433669,7.9689351283234515,6.081584224889783,477.8739455788071,595.4940808408357
1.7089518955349507E12,2.5978260869565215,-6.467391304347826,1.8369565217391304,-1.88150905150283,7.95559262699993,6.0740835754971005,477.8728637543755,595.4860032184129
1.7089518955544824E12,2.5978260869565215,-6.467391304347826,1.8695652173913042,-1.8665798743462414,7.983143089192282,6.116563214846041,477.87149344342873,595.5025190714025
1.708951895574014E12,2.608695652173913,-6.456521739130435,1.9021739130434783,-1.8396063851840956,7.959415073325047,6.119808688140951,477.87134920017115,595.5166549106425
1.7089518955935457E12,2.608695652173913,-6.489130434782608,1.8369565217391304,-1.8128492609082774,7.988119481577812,6.1752702206695345,477.8725752678604,595.5067021258715
1.7089518956130771E12,2.5760869565217392,-6.489130434782608,1.891304347826087,-1.8267687352620048,7.937201611662103,6.110432876400099,477.8725752678604,595.4952347868962
1.708951895632609E12,2.5978260869565215,-6.489130434782608,1.8478260869565217,-1.8636950091952098,7.943836801509477,6.080141792314267,477.8727195111179,595.5049712067809
1.7089518956521406E12,2.608695652173913,-6.467391304347826,1.8478260869565217,-1.8807878352150722,7.925157299656546,6.044369464441474,477.87322436251935,595.4886717186776
1.708951895671672E12,2.5869565217391304,-6.478260869565217,1.891304347826087,-1.8795617675258838,7.926239124088183,6.0466773565622995,477.8719982948302,595.488166867276
1.7089518956912039E12,2.5978260869565215,-6.5,1.8804347826086956,-1.9237723259654436,7.99843287449275,6.074660548527307,477.8719982948302,595.5120391264009
1.7089518957107356E12,2.5869565217391304,-6.467391304347826,1.8804347826086956,-1.8619640901045909,8.210831071237454,6.348866981132863,477.8722867813453,595.5762273760114
1.708951895730267E12,2.5760869565217392,-6.467391304347826,1.9239130434782608,-1.3795425152233263,8.0188432954363,6.639300780212973,477.87207041645894,595.1538831179004
1.7089518957497988E12,2.5978260869565215,-6.478260869565217,1.858695652173913,-1.9092758785815096,7.77312490619718,5.86384902761567,477.8756764978977,595.1766014309646
1.7089518957693303E12,2.630434782608696,-6.467391304347826,1.8152173913043477,-1.916343798201537,7.903232324508706,5.986888526307169,477.8752437681251,595.4712182845138
1.708951895788862E12,2.510869565217391,-6.467391304347826,1.967391304347826,-1.892976390478181,7.926022759201857,6.033046368723675,477.873657092292,595.5266076954136
1.7089518958083938E12,2.5543478260869565,-6.510869565217391,1.934782608695652,-1.879129037753229,7.926960340375941,6.047831302622712,477.8732964841481,595.5447823458651
1.7089518958279253E12,2.5869565217391304,-6.532608695652174,1.8804347826086956,-1.8664356310886898,7.9165027042034515,6.050067073114762,477.8748831599812,595.5594951581354
1.708951895847457E12,2.5978260869565215,-6.456521739130435,1.9021739130434783,-1.867373212262775,7.910588730643837,6.043215518381062,477.8745225518373,595.5650485235511
1.7089518958669888E12,2.5652173913043477,-6.423913043478261,1.891304347826087,-1.857059819347837,7.912680257878335,6.0556204385304975,477.8731522408906,595.591445039683
1.7089518958865203E12,2.543478260869565,-6.478260869565217,1.967391304347826,-1.8341972630259114,7.902655351478501,6.068458088452589,477.8733686057769,595.6029845002871
1.708951895906052E12,2.641304347826087,-6.5,1.9239130434782608,-1.809820152499694,7.91498814999916,6.105167997499466,477.8748831599812,595.6312561787672
1.7089518959255835E12,2.608695652173913,-6.521739130434782,1.8695652173913042,-1.7925109615935042,7.934677354654951,6.142166393061447,477.87408982206466,595.6399107742203
1.7089518959451152E12,2.641304347826087,-6.5,1.934782608695652,-1.7514016331913036,7.963165398021388,6.211763764830085,477.8748831599812,595.654839951377
1.708951895964647E12,2.5869565217391304,-6.467391304347826,1.9239130434782608,-1.7487331329265992,7.967059965975281,6.218326833048682,477.87351284903446,595.6531090322864
1.7089518959841785E12,2.5869565217391304,-6.456521739130435,1.9021739130434783,-1.749887078987012,7.953645343022984,6.203758264035972,477.8757486195265,595.6249815970638
1.7089518960037102E12,2.619565217391304,-6.445652173913043,1.9239130434782608,-1.805997706174577,7.940374963328239,6.134377257153662,477.8741619436934,595.5965656753261
1.708951896023242E12,2.619565217391304,-6.5,1.9239130434782608,-1.8375869795783735,7.9294845973830945,6.091897617804721,477.8774074169883,595.5755782813524
1.7089518960427734E12,2.619565217391304,-6.467391304347826,1.9239130434782608,-1.8528767648788411,7.902006256819518,6.049129491940676,477.87820075490487,595.5733425108604
1.7089518960623052E12,2.652173913043478,-6.5,1.9456521739130435,-1.8565549679464064,7.889096485268651,6.032541517322245,477.8779843900185,595.5778140518444
1.7089518960818367E12,2.5760869565217392,-6.478260869565217,1.9456521739130435,-1.8566270895751822,7.8866443498902745,6.030017260315092,477.8792825793365,595.5870456203277
1.7089518961013684E12,2.5869565217391304,-6.445652173913043,1.891304347826087,-1.8598004412413172,7.914699663484057,6.05489922224274,477.8802201605106,595.5781025383595
1.7089518961209001E12,2.619565217391304,-6.456521739130435,1.967391304347826,-1.8574925491204917,7.92905186761044,6.071559318489948,477.88086925516956,595.5780304167307
1.7089518961404316E12,2.630434782608696,-6.467391304347826,1.967391304347826,-1.8456646020012621,7.9236427454522556,6.077978143450993,477.8812298633135,595.5841607551766
1.7089518961599634E12,2.5978260869565215,-6.489130434782608,1.9456521739130435,-1.845736723630038,7.928979745981664,6.083243022351626,477.88202320122997,595.5693036996489
1.708951896179495E12,2.630434782608696,-6.521739130434782,2.032608695652174,-1.8512900890457737,7.945207112456217,6.093917023410443,477.8837541203206,595.5839443902903
1.7089518961990266E12,2.608695652173913,-6.543478260869565,1.9456521739130435,-1.8504246295004643,7.951986545561141,6.101561916060676,477.8828165391465,595.5739194838906
1.7089518962185583E12,2.5978260869565215,-6.510869565217391,1.934782608695652,-1.8577810356355948,7.956530208174016,6.098749172538421,477.8838262419494,595.5858916742673
1.7089518962380898E12,2.608695652173913,-6.467391304347826,1.9782608695652173,-1.8592234682111108,7.963165398021388,6.1039419298102775,477.88332139054796,595.5840886335479
1.7089518962576216E12,2.619565217391304,-6.445652173913043,1.9565217391304348,-1.8468185480616748,7.955448383742379,6.108629835680704,477.8853407961537,595.5776698085868
1.7089518962771533E12,2.641304347826087,-6.445652173913043,1.9456521739130435,-1.8526603999925138,7.948813193895006,6.096152793902492,477.8850523096386,595.5743522136631
1.7089518962966848E12,2.641304347826087,-6.456521739130435,1.9891304347826086,-1.8530931297651685,7.974344250481636,6.121251120716467,477.8847638231235,595.5738473622617
1.7089518963162166E12,2.630434782608696,-6.445652173913043,1.9565217391304348,-1.837442736320822,7.992014049531704,6.154571313210883,477.8859177691839,595.591445039683
1.708951896335748E12,2.630434782608696,-6.478260869565217,1.934782608695652,-1.7966940160625002,8.034710053766972,6.238016037704472,477.8857735259263,595.5787516330184
1.7089518963552798E12,2.630434782608696,-6.467391304347826,1.967391304347826,-1.806358314318456,7.983647940593713,6.177289626275257,477.88786505316085,595.5905074585089
1.7089518963748115E12,2.619565217391304,-6.467391304347826,1.9456521739130435,-1.8106856120450034,7.975353953284497,6.164668341239493,477.8870717152443,595.5840886335479
1.708951896394343E12,2.619565217391304,-6.467391304347826,1.9456521739130435,-1.8357839388589787,7.960496897756684,6.124712958897705,477.88714383687307,595.5822855928285
1.7089518964138748E12,2.630434782608696,-6.445652173913043,2.0,-1.8522997918486348,7.969584222982434,6.117284431133799,477.88757656664575,595.5812758900256
1.7089518964334065E12,2.630434782608696,-6.456521739130435,2.0217391304347827,-1.8556173867723211,7.965906019914868,6.110288633142547,477.8888026343349,595.5853868228659
1.708951896452938E12,2.652173913043478,-6.467391304347826,2.0217391304347827,-1.834629992798566,8.23059239752202,6.395962404723455,477.88923536410755,595.6510896266806
1.7089518964724697E12,2.630434782608696,-6.456521739130435,1.9456521739130435,-1.433345250290066,8.19958009714843,6.766234846858365,477.8882256613047,595.4288107667936
1.7089518964920012E12,2.608695652173913,-6.456521739130435,1.9891304347826086,-1.8679501852929814,7.83702466929253,5.969074483999549,477.8913268913421,595.2760571570465
1.708951896511533E12,2.6739130434782608,-6.478260869565217,1.9565217391304348,-1.8979527828637104,7.905900824773411,6.0079480419097,477.8921923508874,595.4453987414121
1.7089518965310647E12,2.630434782608696,-6.510869565217391,1.9891304347826086,-1.8466743048041232,7.9740557639665335,6.12738145916241,477.8921923508874,595.5999553918786
1.7089518965505962E12,2.5978260869565215,-6.521739130434782,2.0543478260869565,-1.8455924803724864,7.983215210821059,6.137622730448572,477.8929135671751,595.6053645140368
1.708951896570128E12,2.5869565217391304,-6.489130434782608,2.010869565217391,-1.831240276246104,7.975858804685927,6.144618528439824,477.89226447251616,595.612360312028
1.7089518965896597E12,2.6739130434782608,-6.445652173913043,1.9891304347826086,-1.81400320696869,7.97701275074634,6.16300954377765,477.89262508066,595.6405598688793
1.7089518966091912E12,2.652173913043478,-6.434782608695652,1.9782608695652173,-1.8181862614376858,7.993167995592117,6.174981734154431,477.8919038643723,595.6363046927816
1.708951896628723E12,2.5978260869565215,-6.445652173913043,2.0,-1.796405529547397,8.000235915212144,6.203830385664748,477.8942117564931,595.6595999788761
1.7089518966482544E12,2.630434782608696,-6.478260869565217,2.108695652173913,-1.7786636088685523,8.021511795701002,6.24284818683245,477.8915432562284,595.6611145330804
1.7089518966677861E12,2.630434782608696,-6.543478260869565,2.010869565217391,-1.7421700647080023,8.041345243614344,6.299175178906343,477.8929856888039,595.6733752099723
1.7089518966873179E12,2.630434782608696,-6.510869565217391,1.9456521739130435,-1.7180093190681123,8.039758567781279,6.321749248713166,477.89349054020533,595.6904680359922
1.7089518967068494E12,2.5978260869565215,-6.445652173913043,1.9891304347826086,-1.7110135210768607,8.074881800995088,6.363868279918227,477.89255295903126,595.6906122792498
1.708951896726381E12,2.608695652173913,-6.4021739130434785,2.010869565217391,-1.7195959949011799,8.083897004592062,6.364301009690882,477.8915432562284,595.6627012089135
