Shimmer_6D72_TimestampSync_Unix_CAL,Shimmer_6D72_Accel_LN_X_CAL,Shimmer_6D72_Accel_LN_Y_CAL,Shimmer_6D72_Accel_LN_Z_CAL,Shimmer_6D72_ECG_LA-RA_24BIT_CAL,Shimmer_6D72_ECG_LL-LA_24BIT_CAL,Shimmer_6D72_ECG_LL-RA_24BIT_CAL,Shimmer_6D72_ECG_RESP_24BIT_CAL,Shimmer_6D72_ECG_Vx-RL_24BIT_CAL
ms,m/(s^2),m/(s^2),m/(s^2),mV,mV,mV,mV,mV
1.710401484467533E12,2.782608695652174,-6.282608695652174,4.239130434782608,-17.740189759753914,-14.358190221570762,-32.098379981324676,484.779303047574,446.7126419201663
1.7104014844870647E12,2.8043478260869565,-6.271739130434782,4.282608695652174,-17.749204963350888,-14.341602246952323,-32.09080721030321,484.779303047574,446.7337014357688
1.7104014845065967E12,2.8043478260869565,-6.239130434782608,4.260869565217392,-17.720933284870778,-14.303738391845034,-32.02467167671581,484.7785818312862,446.7416348149341
1.7104014845261284E12,2.8043478260869565,-6.217391304347826,4.293478260869565,-17.69504162014027,-14.197358989400744,-31.892400609541014,484.77822122314234,446.76276645216547
1.7104014845456604E12,2.8152173913043477,-6.25,4.260869565217392,-17.623496964394686,-14.243228345302146,-31.866725309696832,484.7798800206042,446.75620338394685
1.7104014845651924E12,2.793478260869565,-6.217391304347826,4.293478260869565,-17.659197170638702,-14.356098694336257,-32.01529586497496,484.78052911526316,446.80719337549135
1.710401484584724E12,2.7717391304347827,-6.206521739130435,4.260869565217392,-17.69742163388987,-14.409396578001573,-32.106818211891444,484.7771393987107,446.82832501272264
1.710401484604256E12,2.793478260869565,-6.239130434782608,4.217391304347826,-17.717399325060764,-14.40139107720746,-32.118790402268225,484.7784375880287,446.83726809469084
1.7104014846237878E12,2.793478260869565,-6.228260869565217,4.239130434782608,-17.68595429491452,-14.426128795877556,-32.112083090792076,484.77750000685455,446.86315975942136
1.7104014846433198E12,2.8152173913043477,-6.195652173913043,4.239130434782608,-17.7366557999439,-14.403482604441958,-32.14013840438586,484.77750000685455,446.95215784933066
1.7104014846628516E12,2.793478260869565,-6.195652173913043,4.217391304347826,-17.10083152065653,-13.757633418754747,-30.858464939411277,484.774470898446,446.4005716324534
1.7104014846823835E12,2.7717391304347827,-6.206521739130435,4.239130434782608,-17.16956343287986,-13.543937032692078,-30.713500465571936,484.77663454730924,446.1175663611372
1.7104014847019153E12,2.8260869565217392,-6.173913043478261,4.065217391304348,-17.571136661903463,-14.365330262819558,-31.93646692472302,484.774470898446,446.84534571711373
1.7104014847214473E12,2.8043478260869565,-6.358695652173913,4.391304347826087,-17.61707813943364,-14.333236138014332,-31.950314277447973,484.7791588043164,446.9091733585803
1.710401484740979E12,2.782608695652174,-6.195652173913043,4.08695652173913,-17.607197476291358,-14.34491984187601,-31.952117318167367,484.7809618450358,446.95259057910334
1.710401484760511E12,2.782608695652174,-6.0978260869565215,4.130434782608695,-17.56897301304019,-14.363382978842612,-31.9323559918828,484.77836546639986,446.95944213383706
1.710401484780043E12,2.75,-6.282608695652174,4.1521739130434785,-17.577050635463078,-14.337924043884758,-31.914974679347836,484.77865395291496,446.9830259064467
1.7104014847995747E12,2.8260869565217392,-6.3478260869565215,4.206521739130435,-17.56587178300283,-14.308065689571581,-31.87393747257441,484.7784375880287,446.9875695690596
1.7104014848191067E12,2.793478260869565,-6.326086956521739,4.141304347826087,-17.56435722879854,-14.273230942872875,-31.837588171671413,484.7764903040517,446.9924017181876
1.7104014848386384E12,2.8043478260869565,-6.293478260869565,4.163043478260869,-17.561039633874852,-14.232482222614554,-31.793521856489406,484.7756969661352,447.0287510190906
1.7104014848581704E12,2.7717391304347827,-6.260869565217391,4.08695652173913,-17.50449627691463,-14.246113210453181,-31.75060948736781,484.7737496821582,447.0500990212082
1.7104014848777021E12,2.793478260869565,-6.195652173913043,4.076086956521739,-17.48978346464437,-14.166130324140827,-31.655913788785195,484.7705042088633,447.09531928245065
1.7104014848972341E12,2.760869565217391,-6.217391304347826,4.0978260869565215,-17.473916706313695,-14.129131928578847,-31.60304863489254,484.7679078302274,447.11673940619704
1.7104014849167659E12,2.75,-6.228260869565217,4.08695652173913,-17.462449367338344,-14.075689801655987,-31.53813916899433,484.7681963167425,447.120922460666
1.7104014849362979E12,2.782608695652174,-6.260869565217391,4.0978260869565215,-17.47983067987331,-14.051961785788752,-31.53179246566206,484.7706484521209,447.085871349081
1.7104014849558296E12,2.782608695652174,-6.304347826086956,4.08695652173913,-17.51971394058632,-14.119251265436564,-31.638965206022885,484.7708648170072,447.0473583993147
1.7104014849753616E12,2.760869565217391,-6.304347826086956,4.141304347826087,-17.604889584170532,-14.213946964019176,-31.818836548189708,484.7715139116662,447.0284625325755
1.7104014849948933E12,2.75,-6.326086956521739,4.119565217391305,-17.61433751754016,-14.26782182071469,-31.88215933825485,484.7717302765525,447.0230534104173
1.7104014850144253E12,2.75,-6.25,4.184782608695652,-17.62688668094715,-14.288087998400687,-31.914974679347836,484.77281210098414,447.0400019931796
1.7104014850339573E12,2.75,-6.195652173913043,4.021739130434782,-17.639940695755566,-14.25447931939117,-31.894420015146736,484.7708648170072,447.029255870492
1.710401485053489E12,2.7282608695652173,-6.184782608695652,4.108695652173913,-17.630060032613283,-14.262268455298955,-31.892328487912238,484.773172709128,447.03084254632506
1.710401485073021E12,2.7391304347826084,-6.315217391304348,4.08695652173913,-17.61967451806957,-14.246401696968281,-31.86607621503785,484.76985511420435,447.03935289852063
1.7104014850925527E12,2.8043478260869565,-6.304347826086956,4.173913043478261,-17.605033827428084,-14.259022982004044,-31.864056809432128,484.77281210098414,447.0486565886327
1.7104014851120847E12,2.7391304347826084,-6.315217391304348,4.108695652173913,-17.619458153183242,-14.23493435799293,-31.854392511176172,484.77338907401435,447.0568784543131
1.7104014851316165E12,2.760869565217391,-6.304347826086956,4.130434782608695,-17.60662050326115,-14.23305919564476,-31.83967969890591,484.7736054389007,447.05312812961677
1.7104014851511484E12,2.7282608695652173,-6.260869565217391,4.108695652173913,-17.6088562737532,-14.234357384962724,-31.843213658715925,484.7720908846964,447.07375491544667
1.7104014851706802E12,2.75,-6.239130434782608,4.0978260869565215,-17.61743874757752,-14.257075698027098,-31.874514445604618,484.7714417900374,447.0795967673775
1.7104014851902122E12,2.717391304347826,-6.228260869565217,4.141304347826087,-17.597965907808057,-14.277197632455543,-31.8751635402636,484.770287843977,447.0948144310492
1.710401485209744E12,2.75,-6.25,4.141304347826087,-17.59998531341378,-14.282750997871279,-31.882736311285058,484.7721630063252,447.0936604849888
1.710401485229276E12,2.75,-6.293478260869565,4.108695652173913,-17.613976909396282,-14.254335076133618,-31.8683119855299,484.77043208723455,447.0945259445341
1.7104014852488079E12,2.75,-6.282608695652174,4.130434782608695,-17.616717531289762,-14.259022982004044,-31.875740513293806,484.77411029030213,447.11399878430353
1.7104014852683396E12,2.75,-6.271739130434782,4.119565217391305,-17.595369529172128,-14.26818242885857,-31.863551958030698,484.77223512795393,447.1111139191525
1.7104014852878716E12,2.75,-6.260869565217391,4.119565217391305,-17.606764746518703,-14.2755388349937,-31.882303581512403,484.77497574984744,447.1153690952503
1.7104014853074033E12,2.760869565217391,-6.217391304347826,4.0978260869565215,-17.62717516746225,-14.239478020605805,-31.866653188068057,484.77605757427904,447.1204897308934
1.7104014853269353E12,2.75,-6.228260869565217,4.108695652173913,-17.613111449850972,-14.165697594368172,-31.778809044219145,484.7747593849611,447.1223648932415
1.710401485346467E12,2.75,-6.25,4.141304347826087,-17.560823268988525,-14.105115426196505,-31.66593869518503,484.77483150658986,447.10000718832106
1.710401485365999E12,2.7717391304347827,-6.239130434782608,4.108695652173913,-17.518992724298563,-14.14449383550809,-31.663486559806653,484.7759133310215,447.09813202597286
1.7104014853855308E12,2.782608695652174,-6.228260869565217,4.1521739130434785,-17.56313116110935,-14.280875835523108,-31.84400699663246,484.77699515545316,447.1355631513075
1.7104014854050627E12,2.760869565217391,-6.260869565217391,4.119565217391305,-17.64448435836844,-14.279866132720247,-31.92435049108869,484.77728364196827,447.14017893554916
1.7104014854245945E12,2.7717391304347827,-6.25,4.108695652173913,-17.611524774017905,-14.312104500783025,-31.92362927480093,484.7767787905668,447.15907480228844
1.7104014854441265E12,2.75,-6.206521739130435,4.119565217391305,-17.630204275870835,-14.288232241658239,-31.918436517529074,484.77764425011213,447.1793409799744
1.7104014854636584E12,2.75,-6.228260869565217,4.08695652173913,-17.47882097707045,-14.35869507297219,-31.837516050042638,484.77836546639986,447.32488242684394
1.7104014854831902E12,2.8043478260869565,-6.239130434782608,4.108695652173913,-17.043062096007123,-13.34769408079315,-30.390756176800274,484.77526423636255,446.47889572130396
1.7104014855027222E12,2.7717391304347827,-6.271739130434782,4.184782608695652,-17.39862172587177,-13.719985928533784,-31.118607654405555,484.7762739391654,446.57272596034124
1.710401485522254E12,2.8043478260869565,-6.282608695652174,4.032608695652174,-17.532335225622084,-14.25520053567893,-31.787535761301015,484.7788703178013,447.1752300471342
1.710401485541786E12,2.8152173913043477,-6.380434782608695,4.304347826086956,-17.596090745459886,-14.245824723938075,-31.84191546939796,484.781538818066,447.2217484976946
1.7104014855613176E12,2.7717391304347827,-6.163043478260869,4.010869565217392,-17.56572753974528,-14.294074093589078,-31.859801633334357,484.779303047574,447.2490104733718
1.7104014855808496E12,2.793478260869565,-6.195652173913043,4.08695652173913,-17.55664021451953,-14.293785607073975,-31.850425821593504,484.77937516920275,447.2578093120825
1.7104014856003813E12,2.717391304347826,-6.282608695652174,4.141304347826087,-17.52981096861493,-14.274673375448394,-31.804484344063326,484.7790145610589,447.26285782609676
1.7104014856199133E12,2.8043478260869565,-6.315217391304348,4.1521739130434785,-17.52418548157042,-14.274961861963497,-31.799147343533917,484.77641818242296,447.2825470307526
1.710401485639445E12,2.8152173913043477,-6.33695652173913,4.108695652173913,-17.50262111456646,-14.265802415108972,-31.76842352967543,484.7759133310215,447.3069241412788
1.710401485658977E12,2.8152173913043477,-6.304347826086956,4.119565217391305,-17.48805254555375,-14.255705387080361,-31.74375793263411,484.7759854526503,447.34284071240916
1.710401485678509E12,2.760869565217391,-6.271739130434782,4.076086956521739,-17.479037341956776,-14.212648774701211,-31.691686116657987,484.77382180378703,447.35207228089246
1.7104014856980408E12,2.7391304347826084,-6.228260869565217,4.043478260869565,-17.458194191240572,-14.118602170777582,-31.576796362018154,484.7735333172719,447.3941913120975
1.7104014857175728E12,2.7282608695652173,-6.184782608695652,4.010869565217392,-17.44622200086379,-14.059318191923882,-31.505540192787674,484.7725957360978,447.40616350247427
1.7104014857371045E12,2.7391304347826084,-6.25,4.043478260869565,-17.433456472570477,-14.023617985679863,-31.45707445825034,484.7712254251511,447.4003937721722
1.7104014857566365E12,2.760869565217391,-6.304347826086956,4.108695652173913,-17.479542193358206,-14.035445932799096,-31.514988126157302,484.77194664143883,447.363467498239
1.7104014857761682E12,2.760869565217391,-6.315217391304348,4.108695652173913,-17.55252928167931,-14.193536543075627,-31.746065824754936,484.7756248445064,447.32048300748863
1.7104014857957002E12,2.7717391304347827,-6.304347826086956,4.163043478260869,-17.613111449850972,-14.234501628220276,-31.847613078071248,484.7747593849611,447.3134872094974
1.710401485815232E12,2.760869565217391,-6.304347826086956,4.0,-17.59291739379375,-14.30207959438319,-31.894996988176942,484.7723793712115,447.3183193586254
1.710401485834764E12,2.760869565217391,-6.239130434782608,4.239130434782608,-17.60820717909422,-14.296526228967455,-31.904733408061674,484.77584120939275,447.33173398157766
1.7104014858542957E12,2.7282608695652173,-6.239130434782608,4.043478260869565,-17.6109478009877,-14.278135213629628,-31.889083014617327,484.77526423636255,447.3295703327144
1.7104014858738276E12,2.717391304347826,-6.228260869565217,4.228260869565217,-17.596956205005196,-14.265730293480193,-31.862686498485388,484.7777163717409,447.3379364416524
1.7104014858933596E12,2.793478260869565,-6.282608695652174,4.163043478260869,-17.605538678829515,-14.251233846096259,-31.856772524925773,484.77966365571785,447.3468795236206
1.7104014859128914E12,2.8478260869565215,-6.271739130434782,4.25,-17.59565801568723,-14.258013279201183,-31.853671294888414,484.7759854526503,447.3566880651341
1.7104014859324233E12,2.782608695652174,-6.326086956521739,4.260869565217392,-17.589455555612513,-14.249286562119313,-31.838742117731826,484.77807697988476,447.36029414657287
1.710401485951955E12,2.7282608695652173,-6.293478260869565,4.271739130434782,-17.58729190674924,-14.251594454240138,-31.838886360989378,484.78052911526316,447.36224143054983
1.710401485971487E12,2.7282608695652173,-6.260869565217391,4.326086956521739,-17.57870943292492,-14.280731592265557,-31.859441025190478,484.7782933447711,447.3884937034242
1.7104014859910188E12,2.6956521739130435,-6.228260869565217,4.293478260869565,-17.552889889823188,-14.30106989158033,-31.853959781403518,484.78204366946744,447.3908737171738
1.7104014860105508E12,2.6630434782608696,-6.228260869565217,4.304347826086956,-17.54120618596151,-14.348237436799696,-31.889443622761206,484.7807454801495,447.420732071487
1.7104014860300825E12,2.7065217391304346,-6.217391304347826,4.293478260869565,-17.54942805164195,-14.356242937593809,-31.90567098923576,484.7812503315509,447.43212728883356
1.7104014860496145E12,2.6956521739130435,-6.206521739130435,4.293478260869565,-17.55231291679298,-14.383721278157385,-31.936034194950366,484.7829812506415,447.45073466905774
1.7104014860691462E12,2.7065217391304346,-6.25,4.293478260869565,-17.56313116110935,-14.391582535693946,-31.954713696803296,484.78564975090626,447.4590286563669
1.7104014860886782E12,2.7282608695652173,-6.239130434782608,4.260869565217392,-17.545533483688057,-14.438245229511885,-31.983778713199943,484.78687581859543,447.4915555109448
1.7104014861082102E12,2.75,-6.206521739130435,4.25,-17.53363341494005,-14.467310245908529,-32.00094366084858,484.7852170211336,447.50626832321507
1.710401486127742E12,2.7391304347826084,-6.217391304347826,4.271739130434782,-17.532623712137188,-14.470772084089766,-32.003395796226954,484.78557762927744,447.5199714326825
1.710401486147274E12,2.717391304347826,-6.239130434782608,4.293478260869565,-17.514160575170585,-14.504020154955406,-32.01818073012599,484.78348610204296,447.54355520529214
1.7104014861668057E12,2.7065217391304346,-6.217391304347826,4.282608695652174,-17.500601708960737,-14.534455482298789,-32.035057191259526,484.78658733208033,447.55228192237405
1.7104014861863376E12,2.75,-6.217391304347826,4.271739130434782,-17.507453263694437,-14.55688530884806,-32.064338572542496,484.7873806699969,447.5876936421029
1.7104014862058694E12,2.717391304347826,-6.282608695652174,4.293478260869565,-17.496707141006844,-14.505390465902146,-32.00209760690899,484.7886788593148,447.5854578716109
1.7104014862254014E12,2.75,-6.271739130434782,4.326086956521739,-17.463242705254878,-14.43543248598963,-31.898675191244507,484.7875249132544,447.59685308895746
1.710401486244933E12,2.7282608695652173,-6.228260869565217,4.293478260869565,-17.43598072957763,-14.43543248598963,-31.87141321556726,484.77995214223296,447.5910833586554
1.710401486264465E12,2.7282608695652173,-6.217391304347826,4.282608695652174,-17.41953699821675,-14.586310933388582,-32.00584793160533,484.78262064249765,447.6325532952015
1.7104014862839968E12,2.717391304347826,-6.206521739130435,4.315217391304348,-17.475503382146762,-14.66629381970094,-32.1417972018477,484.782187912725,447.6689025961045
1.7104014863035288E12,2.7282608695652173,-6.206521739130435,4.293478260869565,-17.502548992937683,-14.687209092045919,-32.1897580849836,484.78391883181564,447.68260570557186
1.7104014863230608E12,2.7391304347826084,-6.228260869565217,4.271739130434782,-17.494327127257243,-14.70415767480823,-32.19848480206547,484.7831254938991,447.7217677499971
1.7104014863425925E12,2.75,-6.184782608695652,4.271739130434782,-17.51697331869284,-14.735025731924267,-32.25199905061711,484.7819715478387,447.8189877055869
1.7104014863621245E12,2.75,-6.239130434782608,4.315217391304348,-16.88086055289037,-14.247483521399918,-31.128344074290286,484.7806733585207,447.39707617724855
1.7104014863816562E12,2.7282608695652173,-6.206521739130435,4.3478260869565215,-16.90155946034902,-13.794776057574278,-30.6963355179233,484.78420731833074,446.9341995637655
1.7104014864011882E12,2.7282608695652173,-6.1521739130434785,4.076086956521739,-17.416147281664287,-14.821427443197663,-32.23757472486195,484.7842794399595,447.58466453369437
1.71040148642072E12,2.7065217391304346,-6.315217391304348,4.434782608695652,-17.4015065910228,-14.66066833265642,-32.06217492367922,484.7838467101868,447.7889129863874
1.710401486440252E12,2.8478260869565215,-6.184782608695652,4.217391304347826,-17.409800578332018,-14.65691800796008,-32.0667185862921,484.78464004810337,447.82273803028323
1.7104014864597837E12,2.6739130434782608,-6.108695652173913,4.206521739130435,-17.384630129889267,-14.677689037047507,-32.062319166936774,484.78305337227033,447.8573564120956
1.7104014864793157E12,2.6630434782608696,-6.184782608695652,4.239130434782608,-17.377273723754136,-14.666221698072157,-32.04349542182629,484.78557762927744,447.8531012359979
1.7104014864988474E12,2.6956521739130435,-6.217391304347826,4.304347826086956,-17.369196101331248,-14.625905707586494,-31.99510180891774,484.782187912725,447.875242576032
1.7104014865183794E12,2.793478260869565,-6.239130434782608,4.282608695652174,-17.36883549318737,-14.590710352743905,-31.959545845931274,484.782837007384,447.88295959031103
1.7104014865379114E12,2.760869565217391,-6.25,4.260869565217392,-17.343376558229515,-14.560275025400522,-31.903651583630037,484.7791588043164,447.891974793908
1.710401486557443E12,2.717391304347826,-6.260869565217391,4.282608695652174,-17.317989744900437,-14.516208710218514,-31.83419845511895,484.7765624256805,447.9136112825407
1.710401486576975E12,2.7065217391304346,-6.173913043478261,4.228260869565217,-17.311498798310616,-14.460530812803604,-31.77202961111422,484.7751921147337,447.94303690708125
1.7104014865965068E12,2.717391304347826,-6.0978260869565215,4.228260869565217,-17.294261729033202,-14.377374574825115,-31.671636303858318,484.7720187630676,447.98270380290796
1.7104014866160388E12,2.717391304347826,-6.184782608695652,4.271739130434782,-17.27644768672558,-14.351627153352162,-31.62807484007774,484.7737496821582,447.9853001815439
1.7104014866355706E12,2.760869565217391,-6.239130434782608,4.358695652173913,-17.26425913146247,-14.31534997407794,-31.57960910554041,484.77281210098414,447.96034609798744
1.7104014866551025E12,2.782608695652174,-6.315217391304348,4.3478260869565215,-17.309984244106325,-14.373335763613671,-31.683320007719995,484.7749036282186,447.91389976905583
1.7104014866746343E12,2.8152173913043477,-6.33695652173913,4.369565217391305,-17.357223910954467,-14.550754970402117,-31.907978881356584,484.7733169523856,447.891974793908
1.7104014866941663E12,2.793478260869565,-6.293478260869565,4.315217391304348,-17.373667642315347,-14.59359521789494,-31.967262860210287,484.77158603329497,447.89666269977846
1.710401486713698E12,2.8152173913043477,-6.260869565217391,4.434782608695652,-17.3648688036047,-14.62511236966996,-31.98998117327466,484.7735333172719,447.9024324300805
1.71040148673323E12,2.8478260869565215,-6.141304347826087,4.315217391304348,-17.35491601883364,-14.630954221600799,-31.98587024043444,484.7725957360978,447.92190526984996
1.7104014867527617E12,2.7282608695652173,-6.228260869565217,4.33695652173913,-17.347199004554632,-14.633478478607952,-31.980677483162584,484.7720187630676,447.9310647167045
1.7104014867722937E12,2.782608695652174,-6.206521739130435,4.3478260869565215,-17.34005896330583,-14.62972815391161,-31.96978711721744,484.770936938636,447.9561630435185
1.7104014867918257E12,2.782608695652174,-6.217391304347826,4.304347826086956,-17.332774678799474,-14.634127573266934,-31.966902252066408,484.7735333172719,447.9622933819644
1.7104014868113574E12,2.793478260869565,-6.260869565217391,4.293478260869565,-17.337678949556228,-14.628213599707315,-31.965892549263543,484.7727399793554,447.9410175014755
1.7104014868308894E12,2.7717391304347827,-6.239130434782608,4.304347826086956,-17.34092442285114,-14.62128992334484,-31.962214346195978,484.7774278852258,447.9488066373833
1.7104014868504211E12,2.782608695652174,-6.25,4.282608695652174,-17.32448069149026,-14.644440966181872,-31.96892165767213,484.7771393987107,447.95472061094296
1.7104014868699531E12,2.782608695652174,-6.195652173913043,4.304347826086956,-17.326211610580877,-14.648840385537195,-31.975051996118072,484.77310058749924,447.9587594221544
1.7104014868894849E12,2.7717391304347827,-6.163043478260869,4.260869565217392,-17.353329343000574,-14.644585209439423,-31.997914552439997,484.77511999310497,447.9571727463213
1.7104014869090168E12,2.7391304347826084,-6.173913043478261,4.282608695652174,-17.313950933688993,-14.686127267614275,-32.00007820130327,484.77382180378703,447.982054708249
1.7104014869285486E12,2.7717391304347827,-6.228260869565217,4.282608695652174,-17.31315759577246,-14.690815173484701,-32.00397276925716,484.7735333172719,447.99489235817106
1.7104014869480806E12,2.8043478260869565,-6.25,4.271739130434782,-17.306883014068966,-14.681944213145282,-31.988827227214248,484.7737496821582,447.99871480449616
1.7104014869676123E12,2.8043478260869565,-6.271739130434782,4.271739130434782,-17.310849703651634,-14.68764182181857,-31.998491525470204,484.7729563442417,448.00621545388884
1.7104014869871443E12,2.8260869565217392,-6.228260869565217,4.293478260869565,-17.310489095507755,-14.68454059178121,-31.995029687288966,484.7715139116662,448.0091724406687
1.7104014870066763E12,2.782608695652174,-6.217391304347826,4.271739130434782,-17.305296338235898,-14.679275712880578,-31.984572051116476,484.77411029030213,448.02741921274895
1.710401487026208E12,2.8043478260869565,-6.217391304347826,4.293478260869565,-17.289501701534,-14.700695836626988,-31.990197538160988,484.770936938636,448.03535259191426
1.71040148704574E12,2.782608695652174,-6.239130434782608,4.326086956521739,-17.273634943203323,-14.701200688028422,-31.974835631231745,484.77194664143883,448.0516520800176
1.7104014870652717E12,2.8043478260869565,-6.239130434782608,4.315217391304348,-17.258056671387752,-14.718221392419508,-31.97627806380726,484.7708648170072,448.0459544713443
1.7104014870848037E12,2.793478260869565,-6.239130434782608,4.315217391304348,-17.22589042495375,-14.733655420977524,-31.959545845931274,484.766104789508,448.06348002713685
1.7104014871043354E12,2.793478260869565,-6.25,4.293478260869565,-17.259931833735923,-14.70596071552762,-31.965892549263543,484.7652393299627,448.06232608107644
1.7104014871238674E12,2.782608695652174,-6.228260869565217,4.326086956521739,-17.22452011400701,-14.735242096810591,-31.9597622108176,484.7652393299627,448.0606672836146
1.7104014871433992E12,2.8260869565217392,-6.260869565217391,4.3478260869565215,-17.226323154726405,-14.705311620868638,-31.931634775595043,484.7646623569325,448.06290305410664
1.7104014871629312E12,2.8043478260869565,-6.25,4.282608695652174,-17.22401526260558,-14.708484972534773,-31.932500235140353,484.7675472220835,448.08107770455814
1.710401487182463E12,2.782608695652174,-6.228260869565217,4.271739130434782,-17.20021512510957,-14.728318420448115,-31.928533545557684,484.766104789508,448.08374620482283
1.7104014872019949E12,2.793478260869565,-6.239130434782608,4.271739130434782,-17.169635554508634,-14.685838781099175,-31.85547433560781,484.76480660019,448.0916795839882
1.7104014872215269E12,2.8152173913043477,-6.25,4.228260869565217,-17.133502618491963,-14.65439375095293,-31.787896369444894,484.7640853839023,448.0843952994818
1.7104014872410586E12,2.8260869565217392,-6.260869565217391,4.293478260869565,-17.095638763384674,-14.72189959548707,-31.817538358871744,484.76459023530373,448.0990359901233
1.7104014872605906E12,2.8152173913043477,-6.239130434782608,4.228260869565217,-17.12362195534968,-14.773899289834414,-31.897521245184095,484.763219924357,448.11504699171155
1.7104014872801223E12,2.8260869565217392,-6.239130434782608,4.228260869565217,-17.177641055302747,-14.762287707601512,-31.93992876290426,484.75961384291816,448.1220427897028
1.7104014872996543E12,2.8152173913043477,-6.260869565217391,4.195652173913043,-17.20273938211672,-14.741877286657964,-31.944616668774685,484.7630756810994,448.13351012867815
1.710401487319186E12,2.7717391304347827,-6.239130434782608,4.195652173913043,-17.171799203371908,-14.749882787452076,-31.921681990823984,484.7574501940549,448.1842837553363
1.710401487338718E12,2.793478260869565,-6.228260869565217,4.239130434782608,-17.11078430542759,-14.753777355405969,-31.86456166083356,484.7567289777671,448.33573917576547
1.7104014873582498E12,2.8152173913043477,-6.271739130434782,4.217391304347826,-16.472796377276943,-13.660413463164982,-30.133209840441925,484.75377199098733,447.3364940090769
1.7104014873777817E12,2.8043478260869565,-6.195652173913043,4.217391304347826,-17.123549833720904,-14.648263412506989,-31.771813246227893,484.75910899151677,447.7915814866521
1.7104014873973135E12,2.8369565217391304,-6.217391304347826,4.282608695652174,-17.062174327632707,-14.628429964593643,-31.69060429222635,484.7531950179571,448.19185652635775
1.7104014874168455E12,2.858695652173913,-6.315217391304348,4.217391304347826,-17.1027066830047,-14.63383908675183,-31.736545769756532,484.75434896401754,448.2250324755946
1.7104014874363774E12,2.760869565217391,-6.163043478260869,4.195652173913043,-17.07003558516927,-14.65713437284641,-31.72716995801568,484.7550701803053,448.25388112710493
1.7104014874559092E12,2.7717391304347827,-6.163043478260869,4.228260869565217,-17.032892946349733,-14.6675920090189,-31.700484955368633,484.7544932072751,448.2795564269491
1.7104014874754412E12,2.760869565217391,-6.293478260869565,4.206521739130435,-17.031450513774217,-14.635858492357553,-31.66730900613177,484.7524738016694,448.2980916855445
1.710401487494973E12,2.880434782608696,-6.304347826086956,4.271739130434782,-17.015583755443544,-14.592152785319424,-31.607736540762968,484.7516083421241,448.3131651059586
1.710401487514505E12,2.858695652173913,-6.25,4.173913043478261,-17.00418853809697,-14.582849095207347,-31.587037633304316,484.74930045000326,448.32917610754686
1.7104014875340366E12,2.793478260869565,-6.271739130434782,4.130434782608695,-16.956660384733723,-14.559121079340112,-31.515781464073836,484.74569436856444,448.37987761257625
1.7104014875535686E12,2.760869565217391,-6.260869565217391,4.054347826086956,-16.934663287957108,-14.533373657867152,-31.46803694582426,484.7438192062163,448.39415769507383
1.7104014875731003E12,2.717391304347826,-6.239130434782608,4.08695652173913,-16.915695299589075,-14.455915028561954,-31.37161032815103,484.7440355711026,448.4571198769951
1.7104014875926323E12,2.7391304347826084,-6.282608695652174,4.141304347826087,-16.902136433379226,-14.391438292436398,-31.293574725815624,484.7440355711026,448.46801024294024
1.710401487612164E12,2.7391304347826084,-6.271739130434782,4.076086956521739,-16.885187850616916,-14.35919992437362,-31.244387774990535,484.7420882871257,448.4678659996827
1.710401487631696E12,2.75,-6.271739130434782,4.08695652173913,-16.926513543905443,-14.364536924903028,-31.29105046880847,484.74086221943645,448.4255306035913
1.710401487651228E12,2.760869565217391,-6.282608695652174,4.065217391304348,-16.981830833176474,-14.45288592015337,-31.434716753329845,484.73848220568686,448.4046153312463
1.7104014876707598E12,2.75,-6.293478260869565,4.076086956521739,-17.013636471466597,-14.567415066649328,-31.581051538115926,484.73646280008114,448.4067789801096
1.7104014876902917E12,2.760869565217391,-6.326086956521739,3.869565217391304,-17.0297195946836,-14.589195798539617,-31.618915393223215,484.7376888677703,448.420482089577
1.7104014877098235E12,2.8152173913043477,-6.228260869565217,4.119565217391305,-17.018684985480903,-14.602394056605586,-31.62107904208649,484.7365349217099,448.4290645634013
1.7104014877293555E12,2.717391304347826,-6.239130434782608,3.9565217391304346,-17.016088606844974,-14.582344243805917,-31.59843285065089,484.73833796242934,448.43613248302137
1.7104014877488872E12,2.7282608695652173,-6.228260869565217,4.054347826086956,-17.008515835823516,-14.562871404036454,-31.57138723985997,484.7350924891344,448.44630163267874
1.7104014877684192E12,2.8152173913043477,-6.304347826086956,3.9891304347826084,-17.00606370044514,-14.537700955593703,-31.543764656038842,484.7354530972783,448.46209626938065
1.710401487787951E12,2.8260869565217392,-6.293478260869565,4.065217391304348,-16.97505140007155,-14.541451280290044,-31.516502680361594,484.7354530972783,448.46325021544106
1.710401487807483E12,2.760869565217391,-6.33695652173913,4.043478260869565,-16.954352492612898,-14.54202825332025,-31.49638074593315,484.7362464351948,448.4887091503989
1.7104014878270146E12,2.7391304347826084,-6.304347826086956,4.032608695652174,-16.951972478863297,-14.532075468549191,-31.48404794741249,484.73862644894444,448.5098407876302
1.7104014878465466E12,2.7717391304347827,-6.282608695652174,4.043478260869565,-16.95125126257554,-14.512963236923603,-31.464214499499143,484.73776098939913,448.5192165993711
1.7104014878660786E12,2.7282608695652173,-6.25,4.032608695652174,-16.94180332920591,-14.532580319950622,-31.474383649156533,484.73862644894444,448.5273663434227
1.7104014878856104E12,2.75,-6.239130434782608,4.010869565217392,-16.929903260457905,-14.553207105780498,-31.483110366238403,484.7415113140955,448.546911304821
1.7104014879051423E12,2.7391304347826084,-6.271739130434782,4.0,-16.907473433908635,-14.560347147029297,-31.467820580937932,484.74035736803506,448.56220109012145
1.710401487924674E12,2.7717391304347827,-6.304347826086956,4.0,-16.90740131227986,-14.545994942902915,-31.453396255182774,484.74143919246666,448.5645089822423
1.710401487944206E12,2.760869565217391,-6.33695652173913,4.021739130434782,-16.915190448187644,-14.542533104721677,-31.45772355290932,484.7443240576177,448.5943673365554
1.7104014879637378E12,2.8043478260869565,-6.315217391304348,3.967391304347826,-16.894924270501647,-14.545345848243933,-31.44027011874558,484.74129494920913,448.5962424989036
1.7104014879832698E12,2.793478260869565,-6.282608695652174,3.9782608695652173,-16.906319487848222,-14.539864604456973,-31.446184092305195,484.7428095034134,448.6113880409465
1.7104014880028015E12,2.75,-6.25,3.967391304347826,-16.905381906674137,-14.51303535855238,-31.418417265226516,484.7404294896638,448.6160759468169
1.7104014880223335E12,2.75,-6.271739130434782,3.9891304347826084,-16.894924270501647,-14.430383971975324,-31.32530824247697,484.7407900978077,448.61412866284
1.7104014880418652E12,2.782608695652174,-6.271739130434782,3.9891304347826084,-16.852300387895156,-14.399660158116838,-31.251960546011993,484.7405016112926,448.59970433708486
1.7104014880613972E12,2.782608695652174,-6.282608695652174,4.0,-16.83614514304938,-14.310012973548528,-31.146158116597906,484.741655557353,448.5857127411023
1.7104014880809292E12,2.7717391304347827,-6.315217391304348,3.9891304347826084,-16.81450865441664,-14.43644218879249,-31.250950843209132,484.745189517163,448.6288414751103
1.710401488100461E12,2.782608695652174,-6.293478260869565,4.043478260869565,-16.85410342861455,-14.482167301436341,-31.33627073005089,484.7453337604206,448.6380730435936
1.710401488119993E12,2.793478260869565,-6.315217391304348,3.9891304347826084,-16.87638901190627,-14.49125462666209,-31.36764363856836,484.74627134159465,448.65509374798467
1.7104014881395247E12,2.7717391304347827,-6.271739130434782,3.9130434782608696,-16.878696904027095,-14.470627840832215,-31.34932474485931,484.7437470845875,448.6534349505228
1.7104014881590566E12,2.782608695652174,-6.25,3.9891304347826084,-16.922330489436447,-14.44603436541967,-31.368364854856118,484.7449010306479,448.7815950848574
1.7104014881785884E12,2.782608695652174,-6.260869565217391,3.9891304347826084,-16.419498493611634,-14.061698205673483,-30.481196699285118,484.7402131247775,448.42178027889497
1.7104014881981204E12,2.8152173913043477,-6.239130434782608,4.032608695652174,-16.36713819112041,-13.33262066037901,-29.69975885149942,484.7412228275804,447.8294453417594
1.710401488217652E12,2.760869565217391,-6.271739130434782,3.8478260869565215,-16.772101136696474,-14.47625332787673,-31.248354464573204,484.7437470845875,448.5852800113297
1.710401488237184E12,2.760869565217391,-6.326086956521739,4.173913043478261,-16.81833110074176,-14.363166613956285,-31.181497714698043,484.7452616387918,448.66374834343776
1.7104014882567158E12,2.8260869565217392,-6.315217391304348,3.8152173913043477,-16.818403222370534,-14.387760089368829,-31.206163311739363,484.74569436856444,448.69468852218256
1.7104014882762478E12,2.684782608695652,-6.1521739130434785,3.9456521739130435,-16.799940085403932,-14.398073482283767,-31.1980135676877,484.7443240576177,448.7150989431261
1.7104014882957798E12,2.7391304347826084,-6.228260869565217,3.9565217391304346,-16.79034790877675,-14.381197021150236,-31.171544929926984,484.74360284132996,448.73103782308556
1.7104014883153115E12,2.793478260869565,-6.315217391304348,4.021739130434782,-16.789843057375318,-14.356170815965037,-31.146013873340355,484.7449010306479,448.7309657014568
1.7104014883348435E12,2.782608695652174,-6.369565217391304,4.010869565217392,-16.77303871787056,-14.309652365404652,-31.08269108327521,484.7452616387918,448.7145219700959
1.7104014883543752E12,2.8043478260869565,-6.3478260869565215,3.9891304347826084,-16.746425836852293,-14.281885538325973,-31.028311375178266,484.74057373292135,448.7298117553964
1.7104014883739072E12,2.793478260869565,-6.3478260869565215,3.9891304347826084,-16.744839161019225,-14.244887142763993,-30.98972630378322,484.74187192223934,448.76197800183036
1.710401488393439E12,2.7717391304347827,-6.239130434782608,3.891304347826087,-16.69817646720129,-14.193392299818075,-30.891568767019365,484.73978039500486,448.8111649526555
1.710401488412971E12,2.7717391304347827,-6.195652173913043,3.934782608695652,-16.663125355616256,-14.14809991694688,-30.811225272563135,484.73891493545955,448.82219956185816
1.7104014884325027E12,2.75,-6.25,3.967391304347826,-16.638676123461263,-14.07403100419414,-30.712707127655403,484.7372561379977,448.83330629268966
1.7104014884520347E12,2.760869565217391,-6.293478260869565,3.967391304347826,-16.687069736369818,-14.039124135866661,-30.72619387223648,484.73819371917176,448.8008515597405
1.7104014884715664E12,2.782608695652174,-6.304347826086956,3.967391304347826,-16.733588186930202,-14.113770021649604,-30.847358208579806,484.7378331110279,448.76414165069366
1.7104014884910984E12,2.7717391304347827,-6.326086956521739,3.967391304347826,-16.817321397938898,-14.264504225791004,-31.0818256237299,484.736823408225,448.74820277073417
1.7104014885106304E12,2.7717391304347827,-6.326086956521739,3.9239130434782608,-16.835207561875293,-14.303377783701155,-31.13858534557645,484.7402131247775,448.74863550050685
1.710401488530162E12,2.793478260869565,-6.271739130434782,4.065217391304348,-16.85496888815986,-14.321768799038981,-31.17673768719884,484.7369676514826,448.7598143529671
1.710401488549694E12,2.782608695652174,-6.163043478260869,3.858695652173913,-16.850136739031882,-14.334894935476175,-31.185031674508057,484.7375446245128,448.7658725697843
1.7104014885692258E12,2.7065217391304346,-6.239130434782608,3.8804347826086953,-16.86145983474968,-14.320975461122448,-31.18243529587213,484.73999675989114,448.7836866120919
1.7104014885887578E12,2.793478260869565,-6.282608695652174,3.9891304347826084,-16.853887063728223,-14.30344990532993,-31.157336969058154,484.73949190848975,448.7897448289091
1.7104014886082896E12,2.8152173913043477,-6.304347826086956,3.967391304347826,-16.83866940005653,-14.325951853507977,-31.16462125356451,484.7401410031487,448.8051067358383
1.7104014886278215E12,2.7391304347826084,-6.380434782608695,4.010869565217392,-16.82244203358198,-14.303377783701155,-31.125819817283134,484.73941978686094,448.8053952223534
1.7104014886473533E12,2.760869565217391,-6.326086956521739,3.9891304347826084,-16.846674900850644,-14.292992269157441,-31.139667170008085,484.73999675989114,448.7964521403852
1.7104014886668853E12,2.760869565217391,-6.25,4.010869565217392,-16.851434928349846,-14.284481916961898,-31.135916845311744,484.7407179761789,448.8164298315561
1.710401488686417E12,2.75,-6.228260869565217,3.9891304347826084,-16.858286483083546,-14.302368080898294,-31.16065456398184,484.7434585980724,448.82551715678187
1.710401488705949E12,2.75,-6.228260869565217,3.967391304347826,-16.85237250952393,-14.32934157006044,-31.18171407958437,484.7405016112926,448.83806632018883
1.7104014887254807E12,2.7717391304347827,-6.260869565217391,3.9891304347826084,-16.85669980725048,-14.313979663131196,-31.170679470381675,484.74273738178465,448.8465045507556
1.7104014887450127E12,2.760869565217391,-6.315217391304348,4.021739130434782,-16.862036807779887,-14.3509059370644,-31.212942744844288,484.7420882871257,448.8722519722286
1.7104014887645447E12,2.7717391304347827,-6.326086956521739,4.054347826086956,-16.85734890190946,-14.361291451608114,-31.218640353517575,484.74230465201197,448.8789592837047
1.7104014887840764E12,2.760869565217391,-6.315217391304348,4.021739130434782,-16.82107172263524,-14.33669797619557,-31.15776969883081,484.7417998006106,448.8912199605966
1.7104014888036084E12,2.760869565217391,-6.293478260869565,4.021739130434782,-16.836938480965912,-14.222745802729822,-31.059684283695734,484.7439634494738,448.88739751427147
1.7104014888231401E12,2.8043478260869565,-6.25,4.032608695652174,-16.82568750687689,-14.188488029061322,-31.01417553593821,484.74540588204934,448.87318955340265
1.710401488842672E12,2.7717391304347827,-6.271739130434782,4.043478260869565,-16.817032911423794,-14.372037574295707,-31.1890704857195,484.7407179761789,448.90939461104807
1.7104014888622039E12,2.8043478260869565,-6.271739130434782,4.076086956521739,-16.885548458760795,-14.436297945534939,-31.321846404295734,484.7410785843228,448.9307426131657
1.7104014888817358E12,2.7717391304347827,-6.293478260869565,4.032608695652174,-16.899972784515953,-14.465651448446685,-31.365624232962638,484.74129494920913,448.95324456134375
1.7104014889012676E12,2.75,-6.25,4.021739130434782,-16.907617677166186,-14.45151560920663,-31.359133286372817,484.7398525166336,448.95749973744154
1.7104014889207996E12,2.75,-6.293478260869565,4.054347826086956,-16.936249963790175,-14.49385100529802,-31.430100969088194,484.7430979899285,449.0488057194717
1.7104014889403313E12,2.793478260869565,-6.293478260869565,4.076086956521739,-16.374278232369214,-13.892068134792822,-30.266346367162036,484.74446830087527,448.5432331017534
1.7104014889598633E12,2.760869565217391,-6.239130434782608,4.130434782608695,-16.49342316310682,-13.532109085572852,-30.02553224867967,484.7434585980724,448.18716862048734
1.7104014889793953E12,2.760869565217391,-6.217391304347826,3.869565217391304,-16.79366550370044,-14.47019511105956,-31.26386061476,484.7430979899285,448.94487845240576
1.710401488998927E12,2.75,-6.33695652173913,4.25,-16.86903260577114,-14.418195416712216,-31.287228022483355,484.7440355711026,449.00055634982067
1.710401489018459E12,2.8369565217391304,-6.304347826086956,4.010869565217392,-16.84588156293411,-14.452525312009492,-31.298406874943602,484.7419440438681,449.0442620568588
1.7104014890379907E12,2.6956521739130435,-6.217391304347826,4.065217391304348,-16.81934080354462,-14.462261731894223,-31.281602535438843,484.74216040875444,449.04714692200986
1.7104014890575227E12,2.6630434782608696,-6.282608695652174,4.043478260869565,-16.815301992333175,-14.445962243790895,-31.26126423612407,484.7454780036781,449.07210100556625
1.7104014890770544E12,2.684782608695652,-6.315217391304348,4.1521739130434785,-16.794747328132075,-14.432403377581046,-31.22715070571312,484.7459107334508,449.07123554602094
1.7104014890965864E12,2.75,-6.326086956521739,4.130434782608695,-16.800444936805363,-14.399443793230507,-31.19988873003587,484.7433864764436,449.08472229060203
1.7104014891161182E12,2.760869565217391,-6.304347826086956,4.08695652173913,-16.76907202828789,-14.381341264407787,-31.150413292695678,484.74006888151996,449.1122727527944
1.7104014891356501E12,2.760869565217391,-6.304347826086956,4.108695652173913,-16.774697515332402,-14.343333166042946,-31.118030681375348,484.73747250288403,449.1313128627912
1.710401489155182E12,2.75,-6.228260869565217,4.054347826086956,-16.745704620564535,-14.258085400829962,-31.003790021394497,484.7372561379977,449.17263855607973
1.7104014891747139E12,2.7717391304347827,-6.184782608695652,4.021739130434782,-16.726159659166296,-14.218418505003275,-30.94457816416957,484.7330009618999,449.18893804418303
1.7104014891942458E12,2.717391304347826,-6.217391304347826,4.065217391304348,-16.71887537465994,-14.142185943387265,-30.861061318047206,484.7351646107632,449.19788112615123
1.7104014892137776E12,2.7391304347826084,-6.271739130434782,4.119565217391305,-16.74837312082924,-14.147739308803,-30.89611242963224,484.73617431356604,449.15208389187865
1.7104014892333096E12,2.7282608695652173,-6.315217391304348,4.163043478260869,-16.780323002376914,-14.248637467460334,-31.028960469837248,484.7340106647028,449.1187636993842
1.7104014892528413E12,2.7282608695652173,-6.315217391304348,4.130434782608695,-16.83802030539755,-14.380403683233698,-31.218423988631248,484.7358137054222,449.11241699605193
1.7104014892723733E12,2.6956521739130435,-6.326086956521739,4.08695652173913,-16.841482143578787,-14.43543248598963,-31.276914629568417,484.73718401636893,449.11768187495255
1.710401489291905E12,2.7065217391304346,-6.304347826086956,4.217391304347826,-16.83491907536019,-14.466733272878322,-31.301652348238513,484.7366070433387,449.13030315998833
1.710401489311437E12,2.75,-6.206521739130435,4.021739130434782,-16.831889966951607,-14.455770785304402,-31.28766075225601,484.7399246382624,449.13405348468467
1.7104014893309688E12,2.6630434782608696,-6.239130434782608,4.130434782608695,-16.82309112824096,-14.450938636176424,-31.274029764417385,484.74093434106527,449.1530214730527
1.7104014893505007E12,2.7391304347826084,-6.260869565217391,4.0978260869565215,-16.804555869645583,-14.458655650455434,-31.263211520101017,484.7401410031487,449.1613875819907
1.7104014893700325E12,2.7717391304347827,-6.260869565217391,4.173913043478261,-16.801238274721896,-14.468247827082614,-31.26948610180451,484.73949190848975,449.166436096005
1.7104014893895645E12,2.7391304347826084,-6.326086956521739,4.130434782608695,-16.811335302750507,-14.444303446329052,-31.25563874907956,484.74158343572424,449.1929768553945
1.7104014894090964E12,2.717391304347826,-6.282608695652174,4.173913043478261,-16.79243943601125,-14.453174406668474,-31.245613842679724,484.74302586829975,449.1953568691441
1.7104014894286282E12,2.717391304347826,-6.228260869565217,4.173913043478261,-16.792223071124923,-14.474738773672435,-31.266961844797358,484.7413670708379,449.202136302249
1.7104014894481602E12,2.6739130434782608,-6.239130434782608,4.184782608695652,-16.806358910364978,-14.48440307192839,-31.29076198229337,484.7440355711026,449.21720972266314
1.710401489467692E12,2.684782608695652,-6.239130434782608,4.217391304347826,-16.804051018244152,-14.473007854581816,-31.277058872825968,484.745189517163,449.23480740008443
1.7104014894872239E12,2.7282608695652173,-6.228260869565217,4.217391304347826,-16.787030313853062,-14.475027260187542,-31.262057574040604,484.7439634494738,449.2292540346687
1.7104014895067556E12,2.7282608695652173,-6.25,4.184782608695652,-16.786525462451632,-14.495654046017417,-31.28217950846905,484.7431701115573,449.2485826311806
1.7104014895262876E12,2.7282608695652173,-6.282608695652174,4.206521739130435,-16.795757030934936,-14.499764978857634,-31.29552200979257,484.7434585980724,449.2531984154223
1.7104014895458193E12,2.7391304347826084,-6.260869565217391,4.195652173913043,-16.797199463510452,-14.490389167116781,-31.287588630627233,484.7460549767083,449.2635118083372
1.7104014895653513E12,2.75,-6.25,4.206521739130435,-16.782414529611412,-14.50964564199992,-31.292060171611332,484.7443240576177,449.28752831071955
1.710401489584883E12,2.75,-6.239130434782608,4.195652173913043,-16.776067826279142,-14.531210009003882,-31.307277835283024,484.7438192062163,449.28154221553115
1.710401489604415E12,2.760869565217391,-6.217391304347826,4.195652173913043,-16.771956893438922,-14.519670548399755,-31.291627441838678,484.742953746671,449.301231420187
1.710401489623947E12,2.7391304347826084,-6.217391304347826,4.206521739130435,-16.766042919879308,-14.54527372661516,-31.31131664649447,484.74454042250403,449.31226602938966
1.7104014896434788E12,2.75,-6.228260869565217,4.228260869565217,-16.756018013479473,-14.53005606294347,-31.286074076422942,484.7434585980724,449.31854061109317
1.7104014896630107E12,2.717391304347826,-6.239130434782608,4.25,-16.760633797721123,-14.53416699578369,-31.294800793504812,484.745838611822,449.3234448818499
1.7104014896825425E12,2.75,-6.25,4.228260869565217,-16.758902878630504,-14.533373657867156,-31.29227653649766,484.7463434632234,449.3309455312426
1.7104014897020745E12,2.760869565217391,-6.271739130434782,4.206521739130435,-16.74390157984514,-14.436514310421266,-31.180415890266406,484.7491562067457,449.3455141002553
1.7104014897216062E12,2.75,-6.239130434782608,4.217391304347826,-16.732866970642444,-14.371893331038159,-31.104760301680603,484.7473531660263,449.33101765287137
1.7104014897411382E12,2.75,-6.25,4.271739130434782,-16.666370828911166,-14.43680279693637,-31.103173625847536,484.749372571632,449.34616319491425
1.71040148976067E12,2.75,-6.217391304347826,4.228260869565217,-16.671707829440574,-14.529695454799587,-31.20140328424016,484.7539162342449,449.36210207487375
1.710401489780202E12,2.717391304347826,-6.228260869565217,4.239130434782608,-16.756522864880903,-14.569290228997499,-31.325813093878402,484.7524016800406,449.3928258887322
1.7104014897997336E12,2.75,-6.228260869565217,4.239130434782608,-16.744983404276777,-14.60268254312069,-31.347665947397466,484.75406047750243,449.4053029305104
1.7104014898192656E12,2.75,-6.217391304347826,4.228260869565217,-16.721039023523215,-14.602610421491914,-31.32364944501513,484.7526180449269,449.4128757015319
1.7104014898387976E12,2.7282608695652173,-6.239130434782608,4.260869565217392,-16.695147358792706,-14.630377248570593,-31.3255246073633,484.75283440981326,449.60688288293875
1.7104014898583293E12,2.7717391304347827,-6.293478260869565,4.239130434782608,-16.143272655400356,-13.921854367477223,-30.06512702287758,484.7529786530708,448.9402626681641
1.7104014898778613E12,2.75,-6.217391304347826,4.304347826086956,-16.673582991788745,-14.532868806465721,-31.206451798254466,484.75853201848656,449.02478921708934
1.710401489897393E12,2.8043478260869565,-6.195652173913043,4.25,-16.62093420278242,-14.560202903771746,-31.181137106554164,484.7555750317067,449.403499889791
1.710401489916925E12,2.8369565217391304,-6.315217391304348,4.315217391304348,-16.658798057889708,-14.568352647823414,-31.22715070571312,484.7526901665557,449.47728031602867
1.7104014899364568E12,2.7717391304347827,-6.195652173913043,4.25,-16.647763448687012,-14.574194499754253,-31.221957948441265,484.75139197723774,449.4895409929205
1.7104014899559888E12,2.7282608695652173,-6.141304347826087,4.260869565217392,-16.613794161533615,-14.584075162896532,-31.197869324430147,484.75406047750243,449.51701933348414
1.7104014899755205E12,2.6630434782608696,-6.304347826086956,4.25,-16.629372433349186,-14.552485889492736,-31.181858322841922,484.7505986393212,449.5237266449603
1.7104014899950525E12,2.782608695652174,-6.260869565217391,4.293478260869565,-16.602110457671937,-14.53359002275348,-31.135700480425417,484.7518968286392,449.5297127401487
1.7104014900145842E12,2.8369565217391304,-6.271739130434782,4.239130434782608,-16.61300082361708,-14.494427978328225,-31.107428801945307,484.74951681488955,449.55055589086487
1.7104014900341162E12,2.782608695652174,-6.260869565217391,4.239130434782608,-16.57535333339612,-14.476469692763054,-31.051823026159173,484.745189517163,449.5690190278315
1.7104014900536482E12,2.760869565217391,-6.228260869565217,4.239130434782608,-16.56713146771568,-14.421152403492023,-30.988283871207702,484.74158343572424,449.59527130070586
1.71040149007318E12,2.782608695652174,-6.195652173913043,4.163043478260869,-16.548235600976422,-14.363382978842612,-30.911618579819034,484.7410785843228,449.6177732488839
1.710401490092712E12,2.75,-6.239130434782608,4.206521739130435,-16.51412207056547,-14.289891039120086,-30.804013109685556,484.7382658408005,449.6583777258847
1.7104014901122437E12,2.75,-6.239130434782608,4.228260869565217,-16.515925111284865,-14.25195506238402,-30.767880173668885,484.7404294896638,449.6538340632718
1.7104014901317756E12,2.8043478260869565,-6.239130434782608,4.239130434782608,-16.509722651210147,-14.248781710717886,-30.758504361928033,484.74035736803506,449.609695626461
1.7104014901513074E12,2.782608695652174,-6.260869565217391,4.228260869565217,-16.577444860630617,-14.35415141035931,-30.931596270989928,484.74129494920913,449.5664947708243
1.7104014901708394E12,2.7717391304347827,-6.282608695652174,4.271739130434782,-16.61062080986748,-14.449351960343357,-31.059972770210837,484.74244889526955,449.5563977427957
1.710401490190371E12,2.7717391304347827,-6.304347826086956,4.08695652173913,-16.615525080624234,-14.511881412491967,-31.1274064931162,484.74035736803506,449.56909114946023
1.710401490209903E12,2.8043478260869565,-6.239130434782608,4.304347826086956,-16.622881486759365,-14.517506899536478,-31.140388386295843,484.73905917871707,449.56642264919554
1.7104014902294348E12,2.7391304347826084,-6.217391304347826,4.217391304347826,-16.61372203990484,-14.512314142264621,-31.12603618216946,484.73559734053583,449.5906555164642
1.7104014902489668E12,2.7065217391304346,-6.25,4.239130434782608,-16.598432254604372,-14.510366858287675,-31.108799112892047,484.73465975936176,449.60125739589427
1.7104014902684988E12,2.7282608695652173,-6.25,4.217391304347826,-16.572684833131415,-14.530993644117551,-31.103678477248966,484.7347318809905,449.6258508713068
1.7104014902880305E12,2.793478260869565,-6.239130434782608,4.217391304347826,-16.57448787385081,-14.5126747504085,-31.08716262425931,484.73494824587686,449.64467461641726
1.7104014903075625E12,2.793478260869565,-6.304347826086956,4.217391304347826,-16.557827777603602,-14.522555413550783,-31.080383191154386,484.7327124753848,449.65455527955953
1.7104014903270942E12,2.75,-6.293478260869565,4.25,-16.556745953171966,-14.49846678953967,-31.055212742711635,484.73054882652156,449.6620559289522
1.7104014903466262E12,2.760869565217391,-6.260869565217391,4.239130434782608,-16.54448527628008,-14.497312843479257,-31.04179811975934,484.7336500565589,449.6650850373608
1.710401490366158E12,2.793478260869565,-6.228260869565217,4.173913043478261,-16.54967803355194,-14.504885614500715,-31.054563648052653,484.7331452051575,449.69213064815176
1.71040149038569E12,2.8043478260869565,-6.217391304347826,4.163043478260869,-16.540230100182306,-14.500486195145395,-31.0407162953277,484.73336157004377,449.6922748914093
1.7104014904052217E12,2.8043478260869565,-6.228260869565217,4.206521739130435,-16.522920909276117,-14.492769180866386,-31.015690090142503,484.7371118947401,449.7042470817861
1.7104014904247537E12,2.793478260869565,-6.260869565217391,4.206521739130435,-16.541816776015374,-14.460963542576263,-31.002780318591636,484.738121597543,449.70936771742913
1.7104014904442854E12,2.8043478260869565,-6.271739130434782,4.217391304347826,-16.515925111284865,-14.479931530944295,-30.99585664222916,484.73920342197465,449.70886286602774
1.7104014904638174E12,2.8260869565217392,-6.260869565217391,4.1521739130434785,-16.505467475112376,-14.482311544693896,-30.987779019806272,484.7366070433387,449.72133990780594
1.710401490483349E12,2.8369565217391304,-6.239130434782608,4.206521739130435,-16.491620122387424,-14.482455787951448,-30.974075910338872,484.7348761242481,449.73287936841007
1.710401490502881E12,2.8260869565217392,-6.25,4.195652173913043,-16.49890440689378,-14.47207027340773,-30.97097468030151,484.7347318809905,449.75826618173915
1.710401490522413E12,2.793478260869565,-6.239130434782608,4.1521739130434785,-16.486138878600464,-14.471132692233645,-30.95727157083411,484.73552521890707,449.7590595196557
1.7104014905419448E12,2.782608695652174,-6.206521739130435,4.173913043478261,-16.44301014459254,-14.492913424123934,-30.935923568716476,484.73191913746825,449.79764459105076
1.7104014905614768E12,2.793478260869565,-6.260869565217391,4.173913043478261,-16.458732659665664,-14.475532111588969,-30.934264771254632,484.73408278633156,449.7964185233615
1.7104014905810085E12,2.8152173913043477,-6.25,4.163043478260869,-16.461112673415265,-14.456924731364815,-30.91803740478008,484.73732825962645,449.80586645673117
1.7104014906005405E12,2.8152173913043477,-6.271739130434782,4.141304347826087,-16.442938022963766,-14.475243625073865,-30.91818164803763,484.7354530972783,449.8329120675221
1.7104014906200723E12,2.8260869565217392,-6.228260869565217,4.1521739130434785,-16.42815308906473,-14.470844205718542,-30.89899729478327,484.7342270295891,449.8433697036946
1.7104014906396042E12,2.8369565217391304,-6.228260869565217,4.130434782608695,-16.40687720857587,-14.482311544693893,-30.889188753269764,484.7348040026193,449.8623376920626
1.710401490659136E12,2.8478260869565215,-6.239130434782608,4.173913043478261,-16.405434776000355,-14.47892182814143,-30.884356604141786,484.73191913746825,449.8854166132709
1.710401490678668E12,2.8152173913043477,-6.239130434782608,4.163043478260869,-16.378533408466986,-14.481373963519808,-30.859907371986793,484.7334336916726,449.9041682367526
1.7104014906981997E12,2.8369565217391304,-6.260869565217391,4.1521739130434785,-16.387476490435184,-14.467093881022201,-30.854570371457385,484.73292884027114,449.91736649481857
1.7104014907177317E12,2.8152173913043477,-6.217391304347826,4.141304347826087,-16.367715164150617,-14.464064772613618,-30.831779936764235,484.7322797456122,449.9219822790602
1.7104014907372637E12,2.8043478260869565,-6.25,4.108695652173913,-16.312397874879586,-14.451227122691527,-30.763624997571114,484.7321355023546,449.9299877798543
1.7104014907567954E12,2.8369565217391304,-6.260869565217391,4.141304347826087,-16.28758803458071,-14.42908578265736,-30.71667381723807,484.72838517765825,449.94058965928434
1.7104014907763274E12,2.8478260869565215,-6.239130434782608,4.0978260869565215,-16.24698355757994,-14.556308335817857,-30.803291893397798,484.7273033532266,449.9913632859425
1.7104014907958591E12,2.8260869565217392,-6.25,4.108695652173913,-16.312974847909793,-14.518949332111994,-30.831924180021787,484.7315585293244,449.97866987927796
1.710401490815391E12,2.8152173913043477,-6.260869565217391,4.108695652173913,-16.350766581388307,-14.47877758488388,-30.829544166272186,484.730404583264,449.98617052867064
1.7104014908349229E12,2.8152173913043477,-6.239130434782608,4.076086956521739,-16.344924729457468,-14.467021759393425,-30.811946488850893,484.73235186724094,449.9953299755252
1.7104014908544548E12,2.8478260869565215,-6.239130434782608,4.119565217391305,-16.422022750618787,-14.44278889212476,-30.864811642743547,484.73278459701356,450.0927662960013
1.7104014908739866E12,2.869565217391304,-6.260869565217391,4.119565217391305,-15.852910977949021,-13.618078067073592,-29.470989045022613,484.730404583264,449.4672554096288
1.7104014908935186E12,2.8478260869565215,-6.25,4.184782608695652,-15.947101825130204,-13.592402767229412,-29.539504592359616,484.7324239888697,449.2978417036345
1.7104014909130503E12,2.880434782608696,-6.260869565217391,3.967391304347826,-16.266817005493284,-14.38336067001351,-30.650177675506793,484.7306209481503,449.9935269348058
1.7104014909325823E12,2.858695652173913,-6.380434782608695,4.304347826086956,-16.29797354912443,-14.367638154940384,-30.665611704064812,484.72809669114315,450.03232837108715
1.7104014909521143E12,2.858695652173913,-6.173913043478261,4.0,-16.313479699311223,-14.380908534635129,-30.694388233946352,484.72881790743094,450.08115471376834
1.710401490971646E12,2.8478260869565215,-6.0978260869565215,4.130434782608695,-16.30100265753301,-14.34989623426154,-30.65089889179455,484.7252118259921,450.09240568785737
1.710401490991178E12,2.793478260869565,-6.33695652173913,4.0978260869565215,-16.29797354912443,-14.331793705438816,-30.629767254563244,484.7236251501591,450.1043778782342
1.7104014910107097E12,2.902173913043478,-6.369565217391304,4.163043478260869,-16.281169209619666,-14.304603851390347,-30.585773061010013,484.7259330422799,450.10416151334783
1.7104014910302417E12,2.880434782608696,-6.326086956521739,4.108695652173913,-16.247776895496475,-14.314917244305285,-30.56269413980176,484.7267985018252,450.10740698664273
1.7104014910497734E12,2.858695652173913,-6.293478260869565,4.119565217391305,-16.225491312204756,-14.289891039120086,-30.515382351324842,484.7271591099691,450.14015020610697
1.7104014910693054E12,2.8369565217391304,-6.25,4.032608695652174,-16.222245838909846,-14.246041088824402,-30.468286927734248,484.7278803262568,450.1612097217095
1.7104014910888372E12,2.8260869565217392,-6.195652173913043,4.065217391304348,-16.202917242397934,-14.169303675806962,-30.372220918204896,484.7243463664468,450.2004438877635
1.7104014911083691E12,2.8152173913043477,-6.217391304347826,4.021739130434782,-16.174140712516394,-14.133314983047843,-30.307455695564236,484.7256445557648,450.21991672753296
1.710401491127901E12,2.8152173913043477,-6.260869565217391,4.054347826086956,-16.140027182105445,-14.079728612867427,-30.219755794972873,484.72254332572743,450.2258307010926
1.7104014911474329E12,2.8260869565217392,-6.282608695652174,4.076086956521739,-16.16224064376839,-14.048139339463631,-30.21037998323202,484.72095664989433,450.19467415746146
1.7104014911669648E12,2.8043478260869565,-6.282608695652174,4.043478260869565,-16.207533026639585,-14.095523249569329,-30.303056276208913,484.72059604175047,450.151401180196
1.7104014911864966E12,2.8152173913043477,-6.293478260869565,4.065217391304348,-16.25145509856404,-14.274096402418188,-30.52555150098223,484.71677359542537,450.15572847792254
1.7104014912060286E12,2.8260869565217392,-6.304347826086956,4.032608695652174,-16.274173411628414,-14.309796608662204,-30.583970020290618,484.7183602712584,450.16279639754254
1.7104014912255603E12,2.8152173913043477,-6.260869565217391,4.119565217391305,-16.274678263029845,-14.348814409829906,-30.62349267285975,484.71886512265985,450.1782304261006
1.7104014912450923E12,2.782608695652174,-6.25,4.0,-16.27164915462126,-14.352925342670126,-30.624574497291388,484.7187208794023,450.17743708818404
1.710401491264624E12,2.793478260869565,-6.228260869565217,4.021739130434782,-16.256503612578346,-14.33915011157395,-30.595653724152296,484.7205239201217,450.20837726692884
1.710401491284156E12,2.8152173913043477,-6.271739130434782,4.054347826086956,-16.245541125004426,-14.363094492327512,-30.608635617331938,484.7214615012958,450.2177530786697
1.7104014913036877E12,2.8260869565217392,-6.293478260869565,4.108695652173913,-16.23825684049807,-14.351338666837059,-30.58959550733513,484.7183602712584,450.2442938380592
1.7104014913232197E12,2.8043478260869565,-6.326086956521739,4.108695652173913,-16.227871325954357,-14.343044679527843,-30.5709160054822,484.72102877152315,450.24948659533106
1.7104014913427515E12,2.760869565217391,-6.271739130434782,4.065217391304348,-16.239338664929708,-14.339943449490484,-30.57928211442019,484.723336663644,450.2680939755552
1.7104014913622834E12,2.7717391304347827,-6.25,4.08695652173913,-16.210057283646737,-14.36706118191018,-30.577118465556918,484.7202354336066,450.2785516117277
1.7104014913818154E12,2.7717391304347827,-6.239130434782608,4.065217391304348,-16.22440948777312,-14.365762992592217,-30.590172480365336,484.72074028500805,450.28085950384855
1.7104014914013472E12,2.782608695652174,-6.217391304347826,4.032608695652174,-16.22866466387089,-14.37427334478776,-30.60293800865865,484.7229039338713,450.299683248959
1.7104014914208792E12,2.8043478260869565,-6.25,4.0978260869565215,-16.21445670300206,-14.368647857743248,-30.58310456074531,484.72254332572743,450.30740026323804
1.710401491440411E12,2.8478260869565215,-6.282608695652174,4.0978260869565215,-16.214023973229406,-14.38076429137758,-30.594788264606986,484.71915360917495,450.3098523986164
1.7104014914599429E12,2.8478260869565215,-6.293478260869565,4.054347826086956,-16.231549529021922,-14.376581236908585,-30.608130765930508,484.721389379667,450.3190839670997
1.7104014914794746E12,2.8043478260869565,-6.282608695652174,4.054347826086956,-16.192315362967893,-14.409685064516673,-30.602000427484565,484.71886512265985,450.32853190046933
1.7104014914990066E12,2.793478260869565,-6.271739130434782,4.076086956521739,-16.22390463637169,-14.396558928079479,-30.620463564451168,484.7252118259921,450.3513223351625
1.7104014915185383E12,2.75,-6.25,4.043478260869565,-16.19152202505136,-14.442139797465778,-30.633661822517137,484.72102877152315,450.36675636372047
1.7104014915380703E12,2.782608695652174,-6.228260869565217,4.043478260869565,-16.184021375658677,-14.457501704395021,-30.641523080053698,484.72182210943964,450.38320009508135
1.710401491557602E12,2.7717391304347827,-6.25,4.043478260869565,-16.188997768044207,-14.420286943946714,-30.60928471199092,484.72312029875764,450.3822625139073
1.710401491577134E12,2.760869565217391,-6.25,4.043478260869565,-16.153441805057742,-14.384154007930043,-30.537595812987785,484.72160574455336,450.40952448958456
1.710401491596666E12,2.760869565217391,-6.260869565217391,4.021739130434782,-16.14457084471832,-14.26782182071469,-30.41239266543301,484.72326454201516,450.3785843108397
1.7104014916161978E12,2.760869565217391,-6.293478260869565,4.032608695652174,-16.126324072638045,-14.290395890521513,-30.416719963159558,484.7264378936813,450.38493101417197
1.7104014916357297E12,2.7717391304347827,-6.282608695652174,4.054347826086956,-16.140387790249324,-14.427787593339396,-30.56817538358872,484.7229039338713,450.4189003013254
1.7104014916552615E12,2.7717391304347827,-6.293478260869565,4.054347826086956,-16.211932445994908,-14.428292444740826,-30.640224890735734,484.7247069745907,450.4238766937109
1.7104014916747935E12,2.793478260869565,-6.271739130434782,4.0,-16.195200228118924,-14.440697364890262,-30.635897593009187,484.7242021231893,450.43606524897405
1.7104014916943252E12,2.8043478260869565,-6.239130434782608,3.9891304347826084,-16.198662066300162,-14.437596134852903,-30.636258201153066,484.72218271758356,450.45568233200106
1.7104014917138572E12,2.8260869565217392,-6.271739130434782,4.010869565217392,-16.018862845762115,-14.473873314127129,-30.492736159889244,484.72355302853026,450.6023056033022
1.710401491733389E12,2.8260869565217392,-6.293478260869565,4.076086956521739,-15.707585895965803,-13.291799818491917,-28.99938571445772,484.7222548392123,449.73554786867476
1.710401491752921E12,2.8369565217391304,-6.293478260869565,4.1521739130434785,-16.0627127960578,-13.934547774141762,-29.99726057019956,484.7239136366742,449.9476575789044
1.7104014917724526E12,2.869565217391304,-6.228260869565217,3.9782608695652173,-16.135555641121346,-14.371821209409383,-30.50737685053073,484.72153362292454,450.4864782674883
1.7104014917919846E12,2.8369565217391304,-6.358695652173913,4.1521739130434785,-16.137286560211965,-14.396558928079479,-30.533845488291444,484.7231924203864,450.5141729729382
1.7104014918115166E12,2.7717391304347827,-6.141304347826087,3.9782608695652173,-16.13086773525092,-14.387399481224953,-30.518267216475873,484.725572434136,450.5305445826703
1.7104014918310483E12,2.8260869565217392,-6.173913043478261,4.076086956521739,-16.13894535767381,-14.37239818243959,-30.511343540113398,484.7246348529619,450.5321312585034
1.7104014918505803E12,2.75,-6.282608695652174,4.08695652173913,-16.108005178928995,-14.3622290327822,-30.470234211711194,484.72189423106846,450.54381496236505
1.710401491870112E12,2.8369565217391304,-6.304347826086956,4.130434782608695,-16.13187743805378,-14.302512324155845,-30.434389762209626,484.7230481771289,450.5382615969493
1.710401491889644E12,2.8043478260869565,-6.326086956521739,4.021739130434782,-16.116010679723107,-14.241713791097855,-30.357724470820962,484.721389379667,450.5413628269867
1.7104014919091758E12,2.7717391304347827,-6.315217391304348,4.065217391304348,-16.08442140631931,-14.212432409814884,-30.296853816134195,484.72030755523537,450.56949026220923
1.7104014919287078E12,2.782608695652174,-6.282608695652174,4.032608695652174,-16.080382595107867,-14.182501933872931,-30.2628845289808,484.7187930010311,450.5872321828881
1.7104014919482395E12,2.782608695652174,-6.239130434782608,3.9891304347826084,-16.05153394359755,-14.106990588544676,-30.158524532142227,484.7196584605764,450.6282693896615
1.7104014919677715E12,2.793478260869565,-6.195652173913043,4.0,-16.051606065226327,-14.027801040148859,-30.079407105375186,484.72066816337923,450.6491125403777
1.7104014919873032E12,2.8152173913043477,-6.260869565217391,4.043478260869565,-16.03177261731298,-13.983518360080527,-30.01529097739351,484.72160574455336,450.64067430981095
1.7104014920068352E12,2.8043478260869565,-6.239130434782608,4.010869565217392,-16.064299471890866,-13.996283888373839,-30.060583360264705,484.72283181224253,450.60987837432367
1.7104014920263672E12,2.8369565217391304,-6.239130434782608,4.043478260869565,-16.135555641121346,-14.153076309332409,-30.288631950453755,484.72001906872026,450.56054718024103
1.710401492045899E12,2.858695652173913,-6.260869565217391,4.043478260869565,-16.188709281529103,-14.211350585383247,-30.40005986691235,484.7196584605764,450.5513877333865
1.710401492065431E12,2.880434782608696,-6.293478260869565,4.0,-16.183155916113368,-14.259311468519147,-30.442467384632515,484.7196584605764,450.5570853420598
1.7104014920849626E12,2.880434782608696,-6.271739130434782,4.25,-16.203061485655486,-14.269769104691637,-30.472830590347122,484.72182210943964,450.5613405181576
1.7104014921044946E12,2.8369565217391304,-6.271739130434782,4.054347826086956,-16.18878140315788,-14.266379388139175,-30.455160791297054,484.7246348529619,450.55600351762814
1.7104014921240264E12,2.760869565217391,-6.217391304347826,4.173913043478261,-16.161303062594303,-14.267677577457139,-30.428980640051442,484.72160574455336,450.549296206152
1.7104014921435583E12,2.7391304347826084,-6.315217391304348,4.173913043478261,-16.176809212781098,-14.241858034355406,-30.418667247136504,484.71987482546274,450.5460507328571
1.71040149216309E12,2.793478260869565,-6.282608695652174,4.206521739130435,-16.156254548579998,-14.247122913256039,-30.403377461836037,484.72102877152315,450.57006723523943
1.710401492182622E12,2.75,-6.326086956521739,4.206521739130435,-16.163178224942474,-14.245175629279093,-30.408353854221566,484.7192257308037,450.5594653558094
1.7104014922021538E12,2.7282608695652173,-6.293478260869565,4.206521739130435,-16.169452806645968,-14.241641669469079,-30.411094476115046,484.7219663526972,450.5677593431186
1.7104014922216858E12,2.717391304347826,-6.239130434782608,4.206521739130435,-16.167144914525142,-14.248421102574003,-30.415566017099145,484.72153362292454,450.5679035863762
1.7104014922412178E12,2.7282608695652173,-6.239130434782608,4.206521739130435,-16.144859331233423,-14.26782182071469,-30.412681151948114,484.7172784468268,450.5704278433833
1.7104014922607495E12,2.7282608695652173,-6.25,4.184782608695652,-16.17334737459986,-14.2755388349937,-30.44888620959356,484.72182210943964,450.580813357927
1.7104014922802815E12,2.7282608695652173,-6.228260869565217,4.141304347826087,-16.177169820924977,-14.27467337544839,-30.451843196373368,484.7247790962195,450.5839145879644
1.7104014922998132E12,2.760869565217391,-6.282608695652174,4.195652173913043,-16.161807913995734,-14.285563741393535,-30.44737165538927,484.72340878527274,450.5976898190606
1.7104014923193452E12,2.760869565217391,-6.282608695652174,4.25,-16.174429199031497,-14.29198256635458,-30.466411765386077,484.7252118259921,450.6086523066345
1.710401492338877E12,2.782608695652174,-6.260869565217391,4.206521739130435,-16.15639879183755,-14.309508122147097,-30.465906913984647,484.72629365042377,450.6180281183753
1.710401492358409E12,2.7717391304347827,-6.228260869565217,4.173913043478261,-16.172265550168223,-14.304675973019123,-30.476941523187346,484.72665425856763,450.62177844307166
1.7104014923779407E12,2.75,-6.206521739130435,4.206521739130435,-16.19065656550605,-14.294218336846633,-30.484874902352683,484.7265100153101,450.636779741857
1.7104014923974727E12,2.7391304347826084,-6.206521739130435,4.206521739130435,-16.159067292102254,-14.31498936593406,-30.474056658036314,484.73105367792294,450.6437755398483
1.7104014924170044E12,2.7391304347826084,-6.25,4.195652173913043,-16.160365481420218,-14.258446008973838,-30.418811490394056,484.72968336697625,450.64716525640074
1.7104014924365364E12,2.7391304347826084,-6.239130434782608,4.217391304347826,-16.145508425892405,-14.175722500768007,-30.321230926660412,484.73336157004377,450.6496895134079
1.710401492456068E12,2.7391304347826084,-6.217391304347826,4.239130434782608,-16.124809518433754,-14.118385805891254,-30.243195324325008,484.7301160967489,450.6166578074286
1.7104014924756E12,2.760869565217391,-6.228260869565217,4.271739130434782,-16.12661255915315,-14.282534632984952,-30.4091471921381,484.72968336697625,450.66469081219327
1.710401492495132E12,2.760869565217391,-6.239130434782608,4.271739130434782,-16.177891037212735,-14.333308259643111,-30.511199296855846,484.72694274508274,450.6634647445041
1.7104014925146638E12,2.7282608695652173,-6.228260869565217,4.239130434782608,-16.20760514826836,-14.342539828126412,-30.550144976394773,484.7271591099691,450.68322607078863
1.7104014925341958E12,2.7391304347826084,-6.206521739130435,4.195652173913043,-16.191594146680135,-14.353141707556453,-30.54473585423659,484.72542819087846,450.6977225181726
1.7104014925537275E12,2.7391304347826084,-6.173913043478261,4.206521739130435,-16.201402688193642,-14.392736481754362,-30.594139169948004,484.7259330422799,450.75852105123056
1.7104014925732595E12,2.760869565217391,-6.239130434782608,4.239130434782608,-15.723092046152598,-13.859108550442286,-29.582200596594884,484.72441848807557,450.37404064822687
1.7104014925927913E12,2.782608695652174,-6.260869565217391,4.293478260869565,-15.719774451228911,-13.264970572587323,-28.984745023816235,484.725572434136,449.83752785176375
1.7104014926123232E12,2.793478260869565,-6.25,4.065217391304348,-16.08153654116828,-14.33893374668762,-30.4204702878559,484.72824093440073,450.65387256787693
1.710401492631855E12,2.782608695652174,-6.315217391304348,4.434782608695652,-16.143272655400356,-14.297896539914195,-30.44116919531455,484.72896215068846,450.71964749332045
1.710401492651387E12,2.869565217391304,-6.25,4.173913043478261,-16.137502925098293,-14.318451204115295,-30.455954129213588,484.7267263801964,450.7522464695271
1.7104014926709187E12,2.7282608695652173,-6.1521739130434785,4.141304347826087,-16.11406339574616,-14.3348228138474,-30.44888620959356,484.72427424481805,450.7952309602775
1.7104014926904507E12,2.7282608695652173,-6.195652173913043,4.1521739130434785,-16.095888745294662,-14.355088991533396,-30.450977736828058,484.7244906097044,450.80128917709465
1.7104014927099827E12,2.717391304347826,-6.25,4.130434782608695,-16.092931758514855,-14.327250042825941,-30.420181801340796,484.7252839476209,450.8210505033792
1.7104014927295144E12,2.7717391304347827,-6.260869565217391,4.195652173913043,-16.08665717681136,-14.292703782642338,-30.3793609594537,484.7253560692497,450.8210505033792
1.7104014927490464E12,2.793478260869565,-6.293478260869565,4.163043478260869,-16.07980562207766,-14.266595753025502,-30.346401375103163,484.726870623454,450.86093376409224
1.7104014927685781E12,2.7282608695652173,-6.293478260869565,4.195652173913043,-16.052038794998982,-14.245319872536644,-30.297358667535626,484.72355302853026,450.89259515912477
1.71040149278811E12,2.7282608695652173,-6.217391304347826,4.130434782608695,-16.024848940950505,-14.215966369624901,-30.240815310575407,484.7205239201217,450.9117073907504
1.7104014928076418E12,2.717391304347826,-6.228260869565217,4.119565217391305,-16.029969576593587,-14.10114873661384,-30.131118313207427,484.7214615012958,450.95498036801587
1.7104014928271738E12,2.7282608695652173,-6.239130434782608,4.1521739130434785,-16.007900358188195,-14.061121232643277,-30.069021590831472,484.7181439063721,450.96190404437834
1.7104014928467056E12,2.75,-6.217391304347826,4.119565217391305,-16.00350093883287,-14.02030039075618,-30.023801329589052,484.7174948117131,450.9378154203672
1.7104014928662375E12,2.75,-6.282608695652174,4.195652173913043,-16.033070806630946,-14.091484438357885,-30.12455524498883,484.7167014737966,450.90081702480524
1.7104014928857693E12,2.7391304347826084,-6.315217391304348,4.217391304347826,-16.100504529536313,-14.245536237422971,-30.346040766959284,484.7141050951607,450.8740599005294
1.7104014929053013E12,2.7065217391304346,-6.3478260869565215,4.239130434782608,-16.116371287866986,-14.283544335787813,-30.3999156236548,484.71590813588006,450.88019023897533
1.7104014929248333E12,2.717391304347826,-6.293478260869565,4.315217391304348,-16.09610511018099,-14.326096096765529,-30.422201206946518,484.71958633894764,450.893172132155
1.710401492944365E12,2.75,-6.173913043478261,4.0978260869565215,-16.1106736791937,-14.328259745628802,-30.4389334248225,484.71958633894764,450.897355186624
1.710401492963897E12,2.608695652173913,-6.228260869565217,4.141304347826087,-16.088965068932186,-14.325519123735322,-30.41448419266751,484.7198027038339,450.9026921871534
1.7104014929834287E12,2.684782608695652,-6.217391304347826,4.163043478260869,-16.084926257720742,-14.31441239290385,-30.399338650624593,484.7205239201217,450.9237517027559
1.7104014930029607E12,2.7391304347826084,-6.260869565217391,4.184782608695652,-16.071727999654772,-14.32660094816696,-30.39832894782173,484.7237693934166,450.9396905827154
1.7104014930224924E12,2.7391304347826084,-6.304347826086956,4.206521739130435,-16.06783343170088,-14.316792406653452,-30.38462583835433,484.72001906872026,450.9557015843036
1.7104014930420244E12,2.7065217391304346,-6.293478260869565,4.195652173913043,-16.077714094843163,-14.307777203056478,-30.38549129789964,484.7217499878109,450.9482730565397
1.7104014930615562E12,2.717391304347826,-6.293478260869565,4.173913043478261,-16.060909755338404,-14.315926947108142,-30.376836702446546,484.71987482546274,450.9613991929769
1.7104014930810881E12,2.6739130434782608,-6.206521739130435,4.206521739130435,-16.07006920219293,-14.327322164454717,-30.397391366647646,484.7198027038339,450.9650773960445
1.7104014931006199E12,2.684782608695652,-6.195652173913043,4.228260869565217,-16.068771012874965,-14.332010070325143,-30.40078108320011,484.72102877152315,450.97553503221695
1.7104014931201519E12,2.7065217391304346,-6.217391304347826,4.195652173913043,-16.067761310072104,-14.334894935476175,-30.40265624554828,484.7208845282656,450.9838290195262
1.7104014931396838E12,2.7065217391304346,-6.25,4.25,-16.06047702556575,-14.356026572707481,-30.41650359827323,484.7236251501591,450.98830056051025
1.7104014931592156E12,2.7282608695652173,-6.293478260869565,4.260869565217392,-16.0558612413241,-14.345857423050095,-30.401718664374194,484.72045179849295,450.9970272775921
1.7104014931787476E12,2.717391304347826,-6.293478260869565,4.25,-16.04122055068261,-14.336697976195573,-30.377918526878183,484.7222548392123,451.0056818730452
1.7104014931982793E12,2.7282608695652173,-6.25,4.239130434782608,-16.055933362952874,-14.347371977254387,-30.40330534020726,484.72636577205253,451.0165001173616
1.7104014932178113E12,2.7282608695652173,-6.228260869565217,4.239130434782608,-16.040643577652403,-14.356026572707485,-30.39667015035989,484.72247120409867,451.0214765097471
1.710401493237343E12,2.717391304347826,-6.217391304347826,4.271739130434782,-16.05037999753714,-14.351627153352158,-30.402007150889297,484.7223269608411,451.03662205179006
1.710401493256875E12,2.684782608695652,-6.228260869565217,4.282608695652174,-16.038047199016475,-14.361291451608118,-30.399338650624593,484.7214615012958,451.0451324039856
1.7104014932764067E12,2.6956521739130435,-6.217391304347826,4.260869565217392,-16.049875146135708,-14.354367775245638,-30.404242921381346,484.7219663526972,451.054652458984
1.7104014932959387E12,2.717391304347826,-6.25,4.25,-16.046341186325694,-14.358478708085858,-30.404819894411553,484.721389379667,451.0697258793981
1.7104014933154705E12,2.7065217391304346,-6.25,4.293478260869565,-16.0060973174688,-14.38747160285373,-30.39356892032253,484.72131725803825,451.0708798254585
1.7104014933350024E12,2.6956521739130435,-6.271739130434782,4.315217391304348,-16.02117073788294,-14.379105493915738,-30.400276231798678,484.71915360917495,451.0909296382582
1.7104014933545344E12,2.7065217391304346,-6.293478260869565,4.282608695652174,-16.002419114401235,-14.379826710203496,-30.38224582460473,484.71958633894764,451.08162594814615
1.7104014933740662E12,2.7391304347826084,-6.282608695652174,4.260869565217392,-15.988283275161182,-14.404275942358487,-30.39255921751967,484.71648510891026,451.0979975578782
1.7104014933935981E12,2.7391304347826084,-6.239130434782608,4.25,-15.987489937244648,-14.396198319935598,-30.383688257180246,484.7160523791376,451.10513759912703
1.71040149341313E12,2.7391304347826084,-6.25,4.260869565217392,-15.998163938303465,-14.347444098883164,-30.34560803718663,484.7176390549707,451.1078060993917
1.7104014934326619E12,2.7282608695652173,-6.217391304347826,4.239130434782608,-15.946596973728774,-14.309147514003222,-30.255744487731995,484.71352812213047,451.10391153143786
1.7104014934521936E12,2.75,-6.228260869565217,4.282608695652174,-15.89373181983612,-14.279721889462696,-30.173453709298816,484.7145378249333,451.10124303117317
1.7104014934717256E12,2.7717391304347827,-6.271739130434782,4.282608695652174,-15.874258980066656,-14.433052472240028,-30.307311452306685,484.7130953923578,451.1455257112415
1.7104014934912573E12,2.760869565217391,-6.239130434782608,4.260869565217392,-15.95900189387821,-14.41949360603018,-30.37849549990839,484.7127347842139,451.1401165890833
1.7104014935107893E12,2.793478260869565,-6.25,4.163043478260869,-15.967800732588856,-14.42035906557549,-30.388159798164345,484.7121578111837,451.1670179566167
1.710401493530321E12,2.75,-6.239130434782608,4.130434782608695,-15.960227961567398,-14.403771090957058,-30.363999052524456,484.71259054095634,451.17120101108566
1.710401493549853E12,2.7391304347826084,-6.228260869565217,4.195652173913043,-15.959939475052295,-14.42908578265736,-30.389025257709655,484.7161245007664,451.2645985203503
1.710401493569385E12,2.75,-6.228260869565217,4.217391304347826,-15.420253326923053,-13.759220094587814,-29.179473421510867,484.71403297353186,450.76248774081324
1.7104014935889167E12,2.760869565217391,-6.239130434782608,4.271739130434782,-15.4633099393022,-13.446356468958435,-28.909666408260634,484.71374448701675,450.39005164981506
1.7104014936084487E12,2.8043478260869565,-6.228260869565217,4.032608695652174,-15.826081732044427,-14.348958653087456,-30.175040385131883,484.71316751398655,451.151151198286
1.7104014936279805E12,2.760869565217391,-6.326086956521739,4.358695652173913,-15.857743127076999,-14.300348675292573,-30.158091802369572,484.7111481083808,451.1995448111945
1.7104014936475125E12,2.869565217391304,-6.195652173913043,4.065217391304348,-15.847501855790837,-14.313186325214664,-30.1606881810055,484.7099941623204,451.2401492881953
1.7104014936670442E12,2.75,-6.119565217391304,4.1521739130434785,-15.838558773822639,-14.309291757260771,-30.14785053108341,484.709489310919,451.2530590597462
1.7104014936865762E12,2.7282608695652173,-6.282608695652174,4.173913043478261,-15.807762838335377,-14.300781405065228,-30.108544243400605,484.7097777974341,451.2607760740252
1.710401493706108E12,2.8478260869565215,-6.315217391304348,4.217391304347826,-15.806248284131085,-14.259960563178131,-30.066208847309216,484.70934506766145,451.28291741405934
1.71040149372564E12,2.880434782608696,-6.304347826086956,4.141304347826087,-15.791968201633479,-14.231977371213125,-30.023945572846603,484.7070371755406,451.29308656371677
1.7104014937451716E12,2.8260869565217392,-6.282608695652174,4.1521739130434785,-15.752157062549243,-14.222457316214717,-29.97461437876396,484.70393594550325,451.32943586461977
1.7104014937647036E12,2.8043478260869565,-6.271739130434782,4.130434782608695,-15.73109754694671,-14.192887448416645,-29.923984995363355,484.7032147292155,451.3504232585935
1.7104014937842356E12,2.8043478260869565,-6.228260869565217,4.076086956521739,-15.709388936685198,-14.125597968768833,-29.83498690545403,484.70566686459387,451.4051635748343
1.7104014938037673E12,2.8043478260869565,-6.217391304347826,4.065217391304348,-15.690060340173286,-14.067828544119426,-29.75788888429271,484.70335897247304,451.4302619016483
1.7104014938232993E12,2.8152173913043477,-6.228260869565217,4.08695652173913,-15.660274107488885,-14.008833051780826,-29.66910715926971,484.70451291853345,451.4453353220624
1.710401493842831E12,2.8478260869565215,-6.260869565217391,4.076086956521739,-15.66806324339667,-13.964838858227594,-29.632902101624264,484.7035032157306,451.417496373355
1.710401493862363E12,2.8478260869565215,-6.282608695652174,4.08695652173913,-15.712922896495211,-14.000394821214059,-29.71331771770927,484.70429655364717,451.37256459862766
1.7104014938818948E12,2.8478260869565215,-6.304347826086956,4.108695652173913,-15.761388631032544,-14.167284270201238,-29.92867290123378,484.70278199944283,451.37948827499014
1.7104014939014268E12,2.8260869565217392,-6.33695652173913,4.065217391304348,-15.772206875348912,-14.232626465872107,-30.00483334122102,484.70285412107165,451.39290289794246
1.7104014939209585E12,2.8260869565217392,-6.260869565217391,4.206521739130435,-15.77566871353015,-14.270201834464293,-30.045870547994443,484.7032147292155,451.40992360233355
1.7104014939404905E12,2.8260869565217392,-6.217391304347826,4.032608695652174,-15.786919687619173,-14.253758103103413,-30.040677790722587,484.70400806713207,451.4189388059305
1.7104014939600222E12,2.7717391304347827,-6.239130434782608,4.08695652173913,-15.768961402054002,-14.246329575339507,-30.01529097739351,484.70451291853345,451.43401222634463
1.7104014939795542E12,2.8152173913043477,-6.271739130434782,4.130434782608695,-15.758431644252736,-14.24387743996113,-30.002309084213866,484.70436867527593,451.4425225785402
1.7104014939990862E12,2.869565217391304,-6.282608695652174,4.08695652173913,-15.737588493536533,-14.257364184542203,-29.994952678078736,484.70595535110897,451.456730539409
1.710401494018618E12,2.8152173913043477,-6.304347826086956,4.108695652173913,-15.736001817703466,-14.245031386021543,-29.98103320372501,484.70530625645,451.4806027985338
1.71040149403815E12,2.793478260869565,-6.315217391304348,4.0978260869565215,-15.73333331743876,-14.237963466401514,-29.971296783840273,484.70422443201835,451.4919258942516
1.7104014940576816E12,2.8152173913043477,-6.260869565217391,4.076086956521739,-15.705205882216202,-14.264648469048556,-29.969854351264757,484.70465716179103,451.50671082815063
1.7104014940772136E12,2.8260869565217392,-6.282608695652174,4.0978260869565215,-15.719413843085032,-14.265297563707541,-29.984711406792574,484.7032147292155,451.52733761398054
1.7104014940967454E12,2.7717391304347827,-6.25,4.043478260869565,-15.680035433773451,-14.30489233790545,-29.9849277716789,484.70249351292773,451.5476759132953
1.7104014941162773E12,2.8152173913043477,-6.25,4.076086956521739,-15.702970111724152,-14.270490320979395,-29.973460432703547,484.70465716179103,451.5606578064749
1.710401494135809E12,2.8152173913043477,-6.271739130434782,4.032608695652174,-15.684434853128774,-14.288664971430894,-29.973099824559668,484.7073256620557,451.5690239154129
1.710401494155341E12,2.8152173913043477,-6.282608695652174,4.032608695652174,-15.660778958890315,-14.306406892109738,-29.967185851000053,484.7032147292155,451.5882082686673
1.7104014941748728E12,2.8043478260869565,-6.282608695652174,4.065217391304348,-15.670875986918926,-14.303522026958706,-29.974398013877632,484.7027098778141,451.5935452691967
1.7104014941944048E12,2.8152173913043477,-6.271739130434782,4.0,-15.654504377186822,-14.315061487562833,-29.969565864749654,484.70595535110897,451.60912354101225
1.7104014942139365E12,2.8369565217391304,-6.271739130434782,4.065217391304348,-15.662437756352158,-14.305108702791774,-29.967546459143932,484.7084074864874,451.6157587308596
1.7104014942334685E12,2.793478260869565,-6.25,4.021739130434782,-15.645489173589848,-14.311960257525474,-29.95744943111532,484.70595535110897,451.642660098393
1.7104014942530005E12,2.8043478260869565,-6.25,4.054347826086956,-15.654648620444373,-14.310157216806079,-29.964805837250452,484.70696505391186,451.63667400320463
1.7104014942725322E12,2.8152173913043477,-6.260869565217391,4.065217391304348,-15.63106484783469,-14.277341875713095,-29.908406723547785,484.70725354042696,451.64821346380876
1.7104014942920642E12,2.8260869565217392,-6.282608695652174,4.065217391304348,-15.643830376128005,-14.191733502356232,-29.835563878484237,484.7092729460327,451.645544963544
1.710401494311596E12,2.8043478260869565,-6.271739130434782,4.08695652173913,-15.616135670678101,-14.113193048619397,-29.7293287192975,484.7077583918284,451.62744243472133
1.710401494331128E12,2.8260869565217392,-6.260869565217391,4.076086956521739,-15.554183191559696,-14.251450210982588,-29.805633402542284,484.7083353648586,451.6658832628588
1.7104014943506597E12,2.8043478260869565,-6.282608695652174,4.076086956521739,-15.58461851890308,-14.306334770480964,-29.890953289384044,484.7048735266774,451.6808845616442
1.7104014943701917E12,2.8152173913043477,-6.293478260869565,4.043478260869565,-15.640945510976973,-14.33121673240861,-29.972162243385583,484.7051620131925,451.72091206561475
1.7104014943897234E12,2.8260869565217392,-6.282608695652174,4.0,-15.632507280410206,-14.345857423050099,-29.978364703460304,484.7076141485708,451.73930308095254
1.7104014944092554E12,2.8043478260869565,-6.25,4.010869565217392,-15.633156375069188,-14.370883628235298,-30.004040003304485,484.70876809463124,451.8122901692737
1.710401494428787E12,2.793478260869565,-6.239130434782608,4.021739130434782,-15.478455481345115,-14.382927940240855,-29.86138342158597,484.70696505391186,451.90821193554547
1.710401494448319E12,2.8260869565217392,-6.260869565217391,4.032608695652174,-15.132560149736424,-13.235112218274143,-28.367672368010567,484.7060274727378,451.0423917820921
1.710401494467851E12,2.7717391304347827,-6.25,4.08695652173913,-15.66258199960971,-14.346218031193978,-30.008800030803688,484.7110038651233,451.51911574830007
1.7104014944873828E12,2.8260869565217392,-6.25,4.010869565217392,-15.54725951519722,-14.278567943402285,-29.825827458599505,484.71093174349454,451.77370509787863
1.7104014945069148E12,2.8369565217391304,-6.4021739130434785,4.065217391304348,-15.570771166178128,-14.27900067317494,-29.849771839353068,484.7086238513737,451.8288781438921
1.7104014945264465E12,2.7391304347826084,-6.141304347826087,4.021739130434782,-15.562837787012791,-14.275827321508805,-29.838665108521596,484.70992204069165,451.8396242665797
1.7104014945459785E12,2.8260869565217392,-6.206521739130435,4.010869565217392,-15.551658934552544,-14.264287860904679,-29.815946795457222,484.70934506766145,451.8616934849851
1.7104014945655103E12,2.760869565217391,-6.304347826086956,4.054347826086956,-15.530022445919807,-14.24661806185461,-29.776640507774417,484.71021052720675,451.8604674172959
1.7104014945850422E12,2.8043478260869565,-6.369565217391304,4.021739130434782,-15.542932217470673,-14.180338285009656,-29.72327050248033,484.70811899997227,451.8562843628269
1.710401494604574E12,2.8152173913043477,-6.3478260869565215,3.9456521739130435,-15.509179295203603,-14.173991581677386,-29.68317087688099,484.70790263508593,451.87878631100494
1.710401494624106E12,2.793478260869565,-6.315217391304348,3.9891304347826084,-15.485379157707591,-14.15185024164322,-29.63722939935081,484.7073256620557,451.89191244744217
1.7104014946436377E12,2.782608695652174,-6.271739130434782,3.934782608695652,-15.453285032902365,-14.098840844493015,-29.55212587739538,484.70465716179103,451.93655573565434
1.7104014946631697E12,2.8043478260869565,-6.206521739130435,3.9130434782608696,-15.43092732798187,-14.04958177203915,-29.48050910002102,484.70725354042696,451.9677122792855
1.7104014946827017E12,2.7717391304347827,-6.239130434782608,3.9565217391304346,-15.42544608419491,-13.947818153836508,-29.373264238031418,484.70371958061696,451.9948300117052
1.7104014947022334E12,2.8043478260869565,-6.282608695652174,3.9891304347826084,-15.412969042416698,-13.908583987782478,-29.321553030199176,484.70343109410186,451.9666304548539
1.7104014947217654E12,2.7717391304347827,-6.304347826086956,3.9891304347826084,-15.417656948287124,-13.934331409255435,-29.35198835754256,484.7000413775494,451.92855023486027
1.710401494741297E12,2.8043478260869565,-6.304347826086956,3.9782608695652173,-15.523892107473864,-14.065376408741047,-29.58926851621491,484.7009068370947,451.8870802983142
1.710401494760829E12,2.793478260869565,-6.293478260869565,3.967391304347826,-15.561611719323603,-14.139878051266438,-29.70148977059004,484.7032868508443,451.8854936224811
1.7104014947803608E12,2.7717391304347827,-6.293478260869565,3.858695652173913,-15.56730932799689,-14.197575354287073,-29.764884682283963,484.7032868508443,451.9021537187283
1.7104014947998928E12,2.782608695652174,-6.228260869565217,4.08695652173913,-15.564352341217083,-14.21185543678468,-29.776207778001762,484.70177229664,451.8909027446393
1.7104014948194246E12,2.760869565217391,-6.25,3.858695652173913,-15.579281518373671,-14.174424311450045,-29.753705829823716,484.70040198569325,451.89515792073706
1.7104014948389565E12,2.793478260869565,-6.195652173913043,4.021739130434782,-15.58324820795634,-14.183439515047018,-29.766687723003358,484.70429655364717,451.90749071925774
1.7104014948584883E12,2.8260869565217392,-6.293478260869565,3.934782608695652,-15.577839085798155,-14.162019391300609,-29.739858477098764,484.70566686459387,451.91866957171794
1.7104014948780203E12,2.8478260869565215,-6.304347826086956,4.021739130434782,-15.568246909170975,-14.164976378080416,-29.73322328725139,484.70343109410186,451.91982351777835
1.7104014948975522E12,2.760869565217391,-6.369565217391304,4.065217391304348,-15.590820978977797,-14.126102820170262,-29.71692379914806,484.70508989156366,451.9281175050876
1.710401494917084E12,2.793478260869565,-6.326086956521739,4.043478260869565,-15.582671234926133,-14.146296876227487,-29.72896811115362,484.7062438376241,451.9399454522068
1.710401494936616E12,2.793478260869565,-6.293478260869565,4.08695652173913,-15.55771715136971,-14.14514293016707,-29.70286008153678,484.7070371755406,451.9421091010701
1.7104014949561477E12,2.760869565217391,-6.228260869565217,3.934782608695652,-15.574593612503245,-14.16216363455816,-29.736757247061405,484.7073977836845,451.9700922930351
1.7104014949756797E12,2.8152173913043477,-6.217391304347826,3.9239130434782608,-15.582743356554909,-14.157331485430182,-29.74007484198509,484.7051620131925,451.9538649265605
1.7104014949952114E12,2.8152173913043477,-6.25,3.9565217391304346,-15.585916708221044,-14.15444662027915,-29.740363328500194,484.70595535110897,451.9632407383014
1.7104014950147434E12,2.793478260869565,-6.326086956521739,4.021739130434782,-15.59247977643964,-14.169736405579618,-29.76221618201926,484.7112923516384,451.9774486991702
1.7104014950342751E12,2.760869565217391,-6.33695652173913,4.032608695652174,-15.57690150462407,-14.189353488606633,-29.766254993230703,484.7094171892902,451.9879784569715
1.7104014950538071E12,2.760869565217391,-6.33695652173913,4.032608695652174,-15.564929314247289,-14.227000978827595,-29.791930293074884,484.71006628394923,452.0331987182139
1.7104014950733389E12,2.7717391304347827,-6.271739130434782,4.032608695652174,-15.571203895950783,-14.229164627690869,-29.80036852364165,484.7095614325478,452.02778959605575
1.7104014950928708E12,2.760869565217391,-6.271739130434782,3.967391304347826,-15.569689341746491,-14.144205348992985,-29.713894690739476,484.70754202694206,452.0337756912441
1.7104014951124028E12,2.793478260869565,-6.260869565217391,3.9565217391304346,-15.585195491933286,-14.07201159858842,-29.657207090521705,484.7073977836845,452.0166107435955
1.7104014951319346E12,2.760869565217391,-6.282608695652174,4.010869565217392,-15.527353945655102,-14.039412622381763,-29.566766568036865,484.70819112160103,452.00204217458275
1.7104014951514666E12,2.7282608695652173,-6.282608695652174,4.010869565217392,-15.519132079974662,-14.183151028531912,-29.702283108506574,484.71021052720675,452.0377423808268
1.7104014951709983E12,2.7391304347826084,-6.293478260869565,4.0,-15.549639528946821,-14.260681779465889,-29.81032130841271,484.70876809463124,452.05656612593725
1.7104014951905303E12,2.7717391304347827,-6.293478260869565,4.0,-15.585267613562062,-14.288953457945999,-29.87422107150806,484.7089844595176,452.0809432364635
1.710401495210062E12,2.75,-6.271739130434782,3.9891304347826084,-15.599475574430892,-14.262845428329163,-29.862321002760055,484.7110038651233,452.08765054793963
1.710401495229594E12,2.717391304347826,-6.25,3.9782608695652173,-15.622193887495268,-14.289963160748858,-29.912157048244126,484.7111481083808,452.2047760730715
1.7104014952491257E12,2.7391304347826084,-6.271739130434782,4.0,-15.255094797026493,-14.07165099044454,-29.326745787471033,484.7079747567147,452.04235816506844
1.7104014952686577E12,2.75,-6.25,4.032608695652174,-15.29007378698275,-13.501673758229467,-28.791747545212218,484.7133117572441,451.39167683025323
1.7104014952881895E12,2.75,-6.282608695652174,3.891304347826087,-15.526416364481017,-14.306262648852188,-29.832679013333205,484.71561964936495,451.9837954025025
1.7104014953077214E12,2.75,-6.33695652173913,4.206521739130435,-15.562621422126464,-14.17211641932922,-29.734737841455683,484.713023270729,452.11087371240546
1.7104014953272534E12,2.8260869565217392,-6.358695652173913,3.9456521739130435,-15.556563205309297,-14.203128719702809,-29.759691925012106,484.7138166086456,452.1285435114555
1.7104014953467852E12,2.684782608695652,-6.206521739130435,3.967391304347826,-15.552019542696423,-14.210701490724267,-29.76272103342069,484.7133838788729,452.1391453908856
1.7104014953663171E12,2.6739130434782608,-6.217391304347826,4.010869565217392,-15.532763067813287,-14.184521339478652,-29.717284407291938,484.71237417607006,452.1608540011471
1.7104014953858489E12,2.684782608695652,-6.304347826086956,4.0978260869565215,-15.52309876955733,-14.166346689027153,-29.689445458584483,484.71374448701675,452.16453220421465
1.7104014954053809E12,2.760869565217391,-6.315217391304348,4.054347826086956,-15.50528472724971,-14.140599267554196,-29.645883994803906,484.7162687440239,452.17369165106913
1.7104014954249126E12,2.7717391304347827,-6.33695652173913,4.054347826086956,-15.503481686530316,-14.121126427784732,-29.62460811431505,484.7124462976988,452.1870341523927
1.7104014954444446E12,2.75,-6.358695652173913,4.065217391304348,-15.47528212967898,-14.07273281487618,-29.54801494455516,484.71122023000964,452.2140797631836
1.7104014954639763E12,2.7391304347826084,-6.293478260869565,4.032608695652174,-15.47391181873224,-14.003423929622642,-29.477335748354882,484.70963355417655,452.23896172511127
1.7104014954835083E12,2.7065217391304346,-6.260869565217391,3.9782608695652173,-15.451698357069297,-13.965343709629025,-29.417042066698322,484.7063159592529,452.2558381862448
1.71040149550304E12,2.7391304347826084,-6.217391304347826,3.9891304347826084,-15.456818992712378,-13.879230484870732,-29.33604947758311,484.70667656739676,452.28504744589895
1.710401495522572E12,2.7391304347826084,-6.260869565217391,4.010869565217392,-15.4290521656337,-13.880745039075023,-29.309797204708723,484.7084074864874,452.2619685246907
1.710401495542104E12,2.760869565217391,-6.271739130434782,4.054347826086956,-15.492230712441293,-13.98979294178402,-29.482023654225312,484.7102826488355,452.2062906272758
1.7104014955616357E12,2.75,-6.293478260869565,4.054347826086956,-15.533628527358596,-14.117303981459616,-29.65093250881821,484.7097056758053,452.19691481553497
1.7104014955811677E12,2.7282608695652173,-6.326086956521739,4.08695652173913,-15.537811581827592,-14.212143923299783,-29.749955505127375,484.7104268920931,452.2054251677305
1.7104014956006995E12,2.7282608695652173,-6.326086956521739,4.217391304347826,-15.547908609856202,-14.232770709129658,-29.78067931898586,484.7063159592529,452.21278157386564
1.7104014956202314E12,2.7717391304347827,-6.173913043478261,4.0,-15.543725555387207,-14.258157522458736,-29.801883077845943,484.7080468783435,452.22944167011286
1.7104014956397632E12,2.641304347826087,-6.282608695652174,4.043478260869565,-15.517184795997716,-14.27164426703981,-29.788829063037525,484.70811899997227,452.2458132798449
1.7104014956592952E12,2.717391304347826,-6.271739130434782,4.130434782608695,-15.533123675957166,-14.234717993106605,-29.76784166906377,484.7098499190629,452.27026251199993
1.710401495678827E12,2.7717391304347827,-6.282608695652174,4.1521739130434785,-15.519997539519972,-14.255561143822808,-29.77555868334278,484.70783051345717,452.29341355483695
1.710401495698359E12,2.793478260869565,-6.293478260869565,4.108695652173913,-15.512569011756066,-14.278567943402285,-29.79113695515835,484.71237417607006,452.3054578668425
1.7104014957178906E12,2.7282608695652173,-6.282608695652174,4.130434782608695,-15.504347146075625,-14.276620659425339,-29.780967805500964,484.71446570330454,452.30322209635045
1.7104014957374226E12,2.717391304347826,-6.239130434782608,4.130434782608695,-15.518555106944456,-14.278856429917388,-29.797411536861844,484.713672365388,452.32384888218036
1.7104014957569546E12,2.7065217391304346,-6.239130434782608,4.119565217391305,-15.515598120164649,-14.304243243246466,-29.819841363411115,484.71388873027433,452.33899442422324
1.7104014957764863E12,2.684782608695652,-6.239130434782608,4.130434782608695,-15.509179295203603,-14.328403988886356,-29.83758328408996,484.7112923516384,452.34599022221454
1.7104014957960183E12,2.7065217391304346,-6.217391304347826,4.130434782608695,-15.489490090547813,-14.341890733467428,-29.83138082401524,484.7127347842139,452.34764901967634
1.71040149581555E12,2.717391304347826,-6.25,4.130434782608695,-15.488480387744952,-14.342828314641514,-29.831308702386465,484.71165295978227,452.36784307573356
1.710401495835082E12,2.7282608695652173,-6.282608695652174,4.163043478260869,-15.487254320055763,-14.337635557369657,-29.82488987742542,484.7089844595176,452.36531881872645
1.7104014958546138E12,2.7065217391304346,-6.271739130434782,4.163043478260869,-15.476363954110617,-14.330351272863304,-29.80671522697392,484.70963355417655,452.3749831169824
1.7104014958741458E12,2.7065217391304346,-6.239130434782608,4.141304347826087,-15.475426372936532,-14.345785301421323,-29.821211674357855,484.7076141485708,452.38046436076934
1.7104014958936775E12,2.7065217391304346,-6.25,4.130434782608695,-15.480114278806958,-14.334678570589851,-29.81479284939681,484.7084074864874,452.404697228038
1.7104014959132095E12,2.6739130434782608,-6.271739130434782,4.108695652173913,-15.473479088959586,-14.324365177674913,-29.7978442666345,484.70992204069165,452.397629308418
1.7104014959327412E12,2.6739130434782608,-6.25,4.119565217391305,-15.459415371348307,-14.339510719717829,-29.798926091066136,484.7076862701996,452.4029663089474
1.7104014959522732E12,2.7065217391304346,-6.271739130434782,4.130434782608695,-15.465978439566904,-14.321480312523882,-29.787458752090785,484.71064325697944,452.4154433507256
1.7104014959718052E12,2.7065217391304346,-6.260869565217391,4.119565217391305,-15.471964534755294,-14.321913042296536,-29.79387757705183,484.70811899997227,452.433329514662
1.710401495991337E12,2.7282608695652173,-6.282608695652174,4.119565217391305,-15.436120085253727,-14.350905937064404,-29.78702602231813,484.71259054095634,452.4470326241294
1.710401496010869E12,2.75,-6.282608695652174,4.130434782608695,-15.462588723014441,-14.336481611309246,-29.799070334323687,484.71316751398655,452.4583557198472
1.7104014960304006E12,2.7282608695652173,-6.282608695652174,4.1521739130434785,-15.432153395671058,-14.340808909035793,-29.77296230470685,484.70934506766145,452.46412545014925
1.7104014960499326E12,2.7065217391304346,-6.271739130434782,4.130434782608695,-15.430999449610646,-14.344559233732134,-29.77555868334278,484.7071814187982,452.4650630313233
1.7104014960694644E12,2.7282608695652173,-6.260869565217391,4.141304347826087,-15.447587424229077,-14.327754894227375,-29.775342318456453,484.7071814187982,452.47516005935194
1.7104014960889963E12,2.7065217391304346,-6.271739130434782,4.130434782608695,-15.447443180971526,-14.321696677410209,-29.769139858381735,484.71230205444124,452.4848243576079
1.710401496108528E12,2.717391304347826,-6.282608695652174,4.130434782608695,-15.42732124654308,-14.31224874404058,-29.73956999058366,484.7138166086456,452.4879255876453
1.71040149612806E12,2.7282608695652173,-6.271739130434782,4.141304347826087,-15.382750079959642,-14.284409795333122,-29.667159875292764,484.7130953923578,452.4927577367732
1.7104014961475918E12,2.7065217391304346,-6.293478260869565,4.141304347826087,-15.35447840147953,-14.299338972489712,-29.653817373969243,484.7124462976988,452.4904498446524
1.7104014961671238E12,2.684782608695652,-6.25,4.130434782608695,-15.3128642216759,-14.398434090427648,-29.711298312103548,484.7094171892902,452.52672702392664
1.7104014961866555E12,2.7065217391304346,-6.260869565217391,4.119565217391305,-15.337241332202117,-14.388192819141485,-29.725434151343602,484.7145378249333,452.52434701017705
1.7104014962061875E12,2.7065217391304346,-6.293478260869565,4.1521739130434785,-15.416935731999367,-14.359272046002395,-29.776207778001762,484.71345600050165,452.5387713359322
1.7104014962257195E12,2.6956521739130435,-6.293478260869565,4.1521739130434785,-15.414050866848335,-14.352059883124817,-29.76611074997315,484.7130953923578,452.53920406570484
1.7104014962452512E12,2.717391304347826,-6.260869565217391,4.1521739130434785,-15.402583527872984,-14.365835114220992,-29.768418642093977,484.71504267633475,452.57497639357763
1.7104014962647832E12,2.6956521739130435,-6.271739130434782,4.1521739130434785,-15.072266468079862,-14.187622569516014,-29.259889037595876,484.7172784468268,452.5685575686166
1.710401496284315E12,2.717391304347826,-6.271739130434782,4.195652173913043,-14.800367927595131,-13.158879656658131,-27.959247584253262,484.7124462976988,451.6969676848612
1.710401496303847E12,2.6956521739130435,-6.25,4.08695652173913,-15.322817006446959,-14.422811200953868,-29.745628207400827,484.7119414462974,452.4158039588695
1.7104014963233787E12,2.684782608695652,-6.282608695652174,4.326086956521739,-15.305219329025666,-14.2844819169619,-29.589701245987566,484.7098499190629,452.54958958024855
1.7104014963429106E12,2.8369565217391304,-6.271739130434782,4.108695652173913,-15.338106791747427,-14.292992269157443,-29.63109906090487,484.7089123378888,452.59192497633995
1.7104014963624424E12,2.6630434782608696,-6.184782608695652,4.119565217391305,-15.313585437963658,-14.306551135367291,-29.62013657333095,484.7092008244039,452.6020941259973
1.7104014963819744E12,2.652173913043478,-6.271739130434782,4.1521739130434785,-15.297718679632984,-14.30143049972421,-29.599149179357195,484.71208568955495,452.61464328940434
1.710401496401506E12,2.6956521739130435,-6.326086956521739,4.141304347826087,-15.277668866833315,-14.303882635102587,-29.581551501935902,484.7112923516384,452.63252945334074
1.710401496421038E12,2.782608695652174,-6.304347826086956,4.108695652173913,-15.29865626080707,-14.230534938637609,-29.52919119944468,484.7105711353506,452.6267597230387
1.71040149644057E12,2.7391304347826084,-6.326086956521739,4.08695652173913,-15.263893635737139,-14.197863840802173,-29.46175747653931,484.70552262133634,452.6519301714814
1.7104014964601018E12,2.6956521739130435,-6.326086956521739,4.076086956521739,-15.232376483962117,-14.19007470489439,-29.422451188856506,484.70011349917814,452.6638302402294
1.7104014964796338E12,2.7282608695652173,-6.217391304347826,4.010869565217392,-15.216509725631443,-14.116438521914308,-29.33294824754575,484.70069047220835,452.71092566382003
1.7104014964991655E12,2.7065217391304346,-6.206521739130435,4.010869565217392,-15.191844128590123,-14.08506561339684,-29.276909741986962,484.6991037963753,452.73407670665705
1.7104014965186975E12,2.6739130434782608,-6.282608695652174,4.076086956521739,-15.179006478668033,-14.02145433681659,-29.20046081548462,484.6986710666026,452.74770769449566
1.7104014965382292E12,2.7282608695652173,-6.304347826086956,4.08695652173913,-15.162634868935928,-13.950270289214885,-29.112905158150813,484.6973007556559,452.72333058396947
1.7104014965577612E12,2.7391304347826084,-6.293478260869565,4.043478260869565,-15.160254855186327,-13.969743128984348,-29.129997984170675,484.69614680959546,452.6831588367413
1.710401496577293E12,2.7391304347826084,-6.282608695652174,3.9891304347826084,-15.237208633090097,-14.125525847140056,-29.362734480230152,484.69528135005015,452.6635417537143
1.710401496596825E12,2.7282608695652173,-6.315217391304348,4.043478260869565,-15.274711880053507,-14.17478491959392,-29.449496799647427,484.6931177011869,452.6630369023129
1.7104014966163567E12,2.7282608695652173,-6.315217391304348,4.010869565217392,-15.278390083121073,-14.22108700526798,-29.499477088389053,484.69347830933077,452.6804903364766
1.7104014966358887E12,2.782608695652174,-6.228260869565217,4.054347826086956,-15.250623256042394,-14.25895086037527,-29.509574116417664,484.6939831607322,452.69361647291385
1.7104014966554207E12,2.6739130434782608,-6.271739130434782,3.9891304347826084,-15.237424997976424,-14.25159445424014,-29.489019452216564,484.69347830933077,452.69116433753544
1.7104014966749524E12,2.6956521739130435,-6.228260869565217,4.173913043478261,-15.244276552710124,-14.206879044399146,-29.45115559710927,484.69290133630057,452.7270809086658
1.7104014966944844E12,2.7717391304347827,-6.271739130434782,4.065217391304348,-15.226390388773726,-14.212288166557332,-29.43867855533106,484.692107998384,452.7250615030601
1.710401496714016E12,2.7717391304347827,-6.315217391304348,4.119565217391305,-15.237424997976424,-14.193897151219504,-29.43132214919593,484.69333406607325,452.74900588381365
1.710401496733548E12,2.7282608695652173,-6.304347826086956,4.08695652173913,-15.196027183059119,-14.213081504473866,-29.409108687532985,484.6929734579293,452.74684223495035
1.7104014967530798E12,2.7717391304347827,-6.239130434782608,4.0978260869565215,-15.193719290938294,-14.209114814891198,-29.40283410582949,484.69203587675526,452.77367148085494
1.7104014967726118E12,2.760869565217391,-6.239130434782608,4.08695652173913,-15.196748399346877,-14.201686287127291,-29.398434686474168,484.69441589050484,452.7673968991515
1.7104014967921436E12,2.75,-6.25,4.0978260869565215,-15.175184032342916,-14.21986093757879,-29.395044969921706,484.6922522416416,452.7923509827079
1.7104014968116755E12,2.75,-6.271739130434782,4.108695652173913,-15.193575047680742,-14.221375491783082,-29.414950539463824,484.69347830933077,452.76689204775005
1.7104014968312073E12,2.7717391304347827,-6.260869565217391,4.076086956521739,-15.181674978932737,-14.217408802200413,-29.39908378113315,484.6916752686114,452.7671084126364
1.7104014968507393E12,2.7717391304347827,-6.293478260869565,4.076086956521739,-15.186867736204594,-14.212937261216315,-29.399804997420908,484.6909540523236,452.78679761729217
1.7104014968702712E12,2.7717391304347827,-6.304347826086956,4.076086956521739,-15.14857115132465,-14.225197938108199,-29.373769089432848,484.69160314698263,452.79999587535815
1.710401496889803E12,2.8043478260869565,-6.293478260869565,4.08695652173913,-15.15268208416487,-14.216182734511225,-29.368864818676094,484.690521322551,452.81672809323413
1.710401496909335E12,2.8043478260869565,-6.239130434782608,4.054347826086956,-15.1531869355663,-14.222745802729822,-29.37593273829612,484.6918195118689,452.8535822455385
1.7104014969288667E12,2.782608695652174,-6.239130434782608,3.9891304347826084,-15.124338284055984,-14.241641669469079,-29.365979953525063,484.690521322551,452.88192604564745
1.7104014969483987E12,2.7717391304347827,-6.25,4.043478260869565,-15.123761311025778,-14.228804019546988,-29.352565330572766,484.6913867820963,452.8965667362889
1.7104014969679304E12,2.793478260869565,-6.304347826086956,4.043478260869565,-15.120371594473315,-14.236160425682119,-29.356532020155434,484.69174739024015,452.899740087955
1.7104014969874624E12,2.75,-6.304347826086956,4.021739130434782,-15.10948122852817,-14.238756804318049,-29.34823803284622,484.69290133630057,452.9275790366625
1.7104014970069941E12,2.793478260869565,-6.282608695652174,4.021739130434782,-15.09988905190099,-14.253613859845862,-29.35350291174685,484.692107998384,452.93846940260767
1.7104014970265261E12,2.8043478260869565,-6.271739130434782,4.010869565217392,-15.119866743071885,-14.213586355875297,-29.33345309894718,484.6942716472473,452.9555622286275
1.7104014970460579E12,2.8043478260869565,-6.293478260869565,4.0,-15.072699197852517,-14.258590252231391,-29.331289450083908,484.68965586300567,452.9702750408978
1.7104014970655898E12,2.7717391304347827,-6.271739130434782,3.9891304347826084,-15.067794927095763,-14.19728686777197,-29.265081794867733,484.6925407281567,452.98231935290335
1.7104014970851218E12,2.8043478260869565,-6.271739130434782,3.9782608695652173,-15.060005791187978,-14.174063703306166,-29.234069494494143,484.6895116197481,452.986286042486
1.7104014971046536E12,2.8152173913043477,-6.282608695652174,3.9891304347826084,-15.011684299908199,-14.121559157557387,-29.133243457465586,484.6929734579293,452.96940958135247
1.7104014971241855E12,2.793478260869565,-6.315217391304348,3.9891304347826084,-14.992211460138735,-14.269769104691639,-29.261980564830374,484.69203587675526,453.02090442429835
1.7104014971437173E12,2.793478260869565,-6.326086956521739,4.010869565217392,-15.023584368656204,-14.285996471166191,-29.309580839822395,484.6903770792934,453.026818397858
1.7104014971632493E12,2.8043478260869565,-6.293478260869565,3.967391304347826,-15.098446619325474,-14.26940849654776,-29.367855115873233,484.69333406607325,453.05004156232377
1.710401497182781E12,2.793478260869565,-6.260869565217391,3.891304347826087,-15.05430818251469,-14.281164322038213,-29.335472504552904,484.6918195118689,453.0492482244073
1.710401497202313E12,2.782608695652174,-6.239130434782608,3.9130434782608696,-15.102773917052021,-14.264576347419782,-29.367350264471803,484.69643529611056,453.1707010472657
1.7104014972218447E12,2.7717391304347827,-6.293478260869565,3.9565217391304346,-14.698820674278817,-13.86761890263783,-28.566439576916647,484.69419952561856,452.912938346021
1.7104014972413767E12,2.7717391304347827,-6.282608695652174,4.032608695652174,-14.83037052516586,-13.624064162261982,-28.45443468742784,484.69643529611056,452.4971571561286
1.7104014972609084E12,2.760869565217391,-6.304347826086956,3.8152173913043477,-14.993653892714251,-14.299771702262367,-29.29342559497662,484.69347830933077,452.99082970509886
1.7104014972804404E12,2.7717391304347827,-6.358695652173913,4.1521739130434785,-15.020699503505172,-14.179977676865777,-29.20067718037095,484.69448801213366,453.09165574212744
1.7104014972999724E12,2.8260869565217392,-6.25,3.7717391304347827,-15.0072127589241,-14.203272962960357,-29.210485721884456,484.6963631744818,453.1446651392776
1.7104014973195042E12,2.782608695652174,-6.173913043478261,3.9456521739130435,-14.975190755747647,-14.215028788450812,-29.19021954419846,484.6915310253538,453.14603545022436
1.7104014973390361E12,2.7282608695652173,-6.315217391304348,3.967391304347826,-14.991129635707098,-14.180554649895983,-29.17168428560308,484.6957862014516,453.1543294375336
1.7104014973585679E12,2.7717391304347827,-6.358695652173913,3.9782608695652173,-14.97360407991458,-14.146945970886467,-29.120550050801047,484.6963631744818,453.1652919251075
1.7104014973780999E12,2.760869565217391,-6.391304347826087,3.869565217391304,-14.96725737658231,-14.116150035399205,-29.083407411981515,484.69672378262567,453.1844041567331
1.7104014973976316E12,2.75,-6.315217391304348,3.8152173913043477,-14.957376713440027,-14.099345695894446,-29.056722409334473,484.6966516609969,453.1991890906321
1.7104014974171636E12,2.75,-6.304347826086956,3.869565217391304,-14.941293590223026,-14.074896463739453,-29.01619005396248,484.6967959042545,453.2146952408189
1.7104014974366953E12,2.7391304347826084,-6.228260869565217,3.869565217391304,-14.888861166103027,-14.005659700114691,-28.894520866217718,484.693406187702,453.2436881355868
1.7104014974562273E12,2.75,-6.228260869565217,3.8478260869565215,-14.878980502960744,-13.955535168115517,-28.83451567107626,484.69189163349773,453.2638100700152
1.710401497475759E12,2.7282608695652173,-6.304347826086956,3.858695652173913,-14.895784842465503,-13.84122238650589,-28.737007228971393,484.69347830933077,453.2726089087259
1.710401497495291E12,2.7282608695652173,-6.315217391304348,3.858695652173913,-14.861094339024346,-13.828240493326247,-28.689334832350593,484.69261284978546,453.24015417577675
1.710401497514823E12,2.7717391304347827,-6.326086956521739,3.858695652173913,-14.95817005135656,-13.876201376462149,-28.83437142781871,484.6904492009222,453.18389930533164
1.7104014975343547E12,2.75,-6.326086956521739,3.8804347826086953,-15.010602475476562,-13.987412928034418,-28.99801540351098,484.68965586300567,453.16702284419813
1.7104014975538867E12,2.75,-6.326086956521739,3.869565217391304,-15.033537153427263,-14.065881260142477,-29.09941841356974,484.69203587675526,453.17142226355344
1.7104014975734185E12,2.7717391304347827,-6.271739130434782,3.869565217391304,-15.057697899067152,-14.099345695894444,-29.157043594961596,484.69232436327036,453.1911114682092
1.7104014975929504E12,2.8043478260869565,-6.173913043478261,3.782608695652174,-15.061376102134718,-14.10576452085549,-29.167140622990207,484.69059344417974,453.1901017654064
1.7104014976124822E12,2.7065217391304346,-6.315217391304348,3.8152173913043477,-15.044643884258734,-14.11001969695326,-29.154663581211995,484.6925407281567,453.21007945657726
1.7104014976320142E12,2.8043478260869565,-6.304347826086956,4.010869565217392,-15.051856047136313,-14.092422019531968,-29.14427806666828,484.69362255258835,453.2154164571067
1.710401497651546E12,2.7717391304347827,-6.358695652173913,3.858695652173913,-15.03050804501868,-14.115428819111445,-29.145936864130125,484.6879970655438,453.2348171752474
1.710401497671078E12,2.760869565217391,-6.380434782608695,3.902173913043478,-15.015795232748419,-14.12869919880619,-29.14449443155461,484.6889346467179,453.2456354195637
1.7104014976906096E12,2.7391304347826084,-6.326086956521739,3.902173913043478,-15.020194652103742,-14.113265170248171,-29.133459822351913,484.69030495766464,453.25782397482686
1.7104014977101416E12,2.7282608695652173,-6.293478260869565,3.902173913043478,-15.033465031798487,-14.118746414035131,-29.15221144583362,484.69001647114953,453.2646755295605
1.7104014977296736E12,2.760869565217391,-6.271739130434782,3.869565217391304,-15.03238320736685,-14.127761617632105,-29.160144824998955,484.68821343043015,453.26857009751444
1.7104014977492053E12,2.7282608695652173,-6.293478260869565,3.891304347826087,-15.019112827672105,-14.154013890506493,-29.173126718178597,484.6884297953165,453.2855908019055
1.7104014977687373E12,2.75,-6.293478260869565,3.891304347826087,-15.028488639412958,-14.15235509304465,-29.180843732457607,484.6886461602028,453.28018167974733
1.710401497788269E12,2.7717391304347827,-6.3478260869565215,3.891304347826087,-15.040821437933618,-14.155384201453233,-29.19620563938685,484.69261284978546,453.2984284518276
1.710401497807801E12,2.7717391304347827,-6.358695652173913,3.9456521739130435,-15.024449828201513,-14.157115120543851,-29.181564948745365,484.6928292146718,453.3153770345899
1.7104014978273328E12,2.760869565217391,-6.326086956521739,3.9130434782608696,-15.027983788011527,-14.173630973533507,-29.201614761545034,484.69218012001284,453.3276377114818
1.7104014978468647E12,2.760869565217391,-6.282608695652174,3.891304347826087,-15.047240262894663,-14.156826634028748,-29.20406689692341,484.6946322553912,453.34242264538085
1.7104014978663965E12,2.7717391304347827,-6.271739130434782,3.891304347826087,-15.022141936080688,-14.111462129528777,-29.133604065609465,484.692107998384,453.3342729013292
1.7104014978859285E12,2.75,-6.293478260869565,3.9456521739130435,-14.988244770556067,-14.022608282877004,-29.01085305343307,484.6902328360359,453.3254740626185
1.7104014979054602E12,2.75,-6.282608695652174,3.934782608695652,-14.951967591281843,-14.054990894197335,-29.006958485479178,484.6908098090661,453.3383838341694
1.7104014979249922E12,2.760869565217391,-6.326086956521739,3.9456521739130435,-14.98319625654176,-14.214668180306933,-29.197864436848693,484.68972798463443,453.3737234322695
1.710401497944524E12,2.7391304347826084,-6.282608695652174,3.902173913043478,-15.031589869450316,-14.2251979381082,-29.256787807558517,484.68936737649057,453.3829550007528
1.710401497964056E12,2.7391304347826084,-6.271739130434782,3.902173913043478,-15.035340194146658,-14.235871939167017,-29.271212133313675,484.68972798463443,453.3993987321137
1.710401497983588E12,2.7717391304347827,-6.228260869565217,3.9239130434782608,-15.025675895890702,-14.230030087236178,-29.25570598312688,484.68907888997546,453.4109381927178
1.7104014980031196E12,2.793478260869565,-6.206521739130435,3.967391304347826,-15.052865749939174,-14.238684682689273,-29.291550432628448,484.6891510116042,453.51565879770027
1.7104014980226516E12,2.8043478260869565,-6.25,3.967391304347826,-14.606504989445805,-13.031945590012741,-27.638450579458546,484.6912425388387,452.64435740045997
1.7104014980421833E12,2.7391304347826084,-6.293478260869565,4.010869565217392,-14.965959187264346,-13.767009230495603,-28.73296841775995,484.6931177011869,452.8899315464415
1.7104014980617153E12,2.760869565217391,-6.282608695652174,3.782608695652174,-14.974253174573562,-14.147811430431776,-29.122064605005338,484.6931177011869,453.3943502180994
1.710401498081247E12,2.782608695652174,-6.434782608695652,4.1521739130434785,-14.98557627029136,-14.170385500238599,-29.15596177052996,484.6916752686114,453.43949835771303
1.710401498100779E12,2.7717391304347827,-6.217391304347826,3.869565217391304,-14.999351501387538,-14.18077101478231,-29.18012251616985,484.6952092284214,453.4757034153585
1.7104014981203108E12,2.7717391304347827,-6.184782608695652,3.902173913043478,-14.972522255482943,-14.183295271789465,-29.155817527272408,484.69556983656526,453.4745494692981
1.7104014981398428E12,2.7282608695652173,-6.293478260869565,3.934782608695652,-14.965310092605364,-14.161298175012849,-29.126608267618213,484.69477649864876,453.49387806581
1.7104014981593745E12,2.7391304347826084,-6.326086956521739,4.010869565217392,-14.94446694188916,-14.152787822817306,-29.097254764706467,484.6915310253538,453.49604171467325
1.7104014981789065E12,2.782608695652174,-6.358695652173913,3.9782608695652173,-14.94944333427469,-14.122713103617802,-29.07215643789249,484.69001647114953,453.5045520668688
1.7104014981984385E12,2.782608695652174,-6.369565217391304,3.9565217391304346,-14.944178455374058,-14.077709207261709,-29.021887662635766,484.68763645739995,453.535059515841
