Shimmer_6D72_TimestampSync_Unix_CAL,Shimmer_6D72_Accel_LN_X_CAL,Shimmer_6D72_Accel_LN_Y_CAL,Shimmer_6D72_Accel_LN_Z_CAL,Shimmer_6D72_ECG_LA-RA_24BIT_CAL,Shimmer_6D72_ECG_LL-LA_24BIT_CAL,Shimmer_6D72_ECG_LL-RA_24BIT_CAL,Shimmer_6D72_ECG_RESP_24BIT_CAL,Shimmer_6D72_ECG_Vx-RL_24BIT_CAL
ms,m/(s^2),m/(s^2),m/(s^2),mV,mV,mV,mV,mV
1.710325413089392E12,1.9456521739130435,-5.054347826086956,7.184782608695652,-6.889202223921088,30.559304423249298,23.67010219932821,499.8954194659495,25.171313902296294
1.7103254131089238E12,1.891304347826087,-5.0978260869565215,7.1521739130434785,-6.926272741111844,30.577190587185694,23.65091784607385,499.8839521269742,24.59758634538488
1.7103254131284556E12,1.7717391304347825,-5.021739130434782,7.206521739130435,-6.932475201186562,30.563415356089518,23.630940154902955,499.88121150508067,24.428749612420752
1.7103254131479875E12,1.7065217391304348,-4.945652173913043,7.206521739130435,-6.871532424871019,30.515815081097493,23.644282656226476,499.86671505769675,25.59207148457426
1.7103254131675193E12,1.717391304347826,-4.934782608695652,7.25,-6.948774689289891,30.549279516849463,23.600504827559572,499.8659217197802,26.13673402508903
1.710325413187051E12,1.8152173913043477,-4.989130434782608,7.239130434782608,-6.960602636409121,30.530744258254085,23.570141621844964,499.8638301925457,25.79170415302565
1.7103254132065828E12,1.8152173913043477,-5.010869565217392,7.173913043478261,-6.901823508956851,30.526272717269986,23.624449208313134,499.849261623533,25.598850917679183
1.7103254132261145E12,1.7717391304347825,-5.021739130434782,7.173913043478261,-6.907016266228708,30.531104866397964,23.624088600169255,499.84226582554174,25.833174089571727
1.7103254132456462E12,1.891304347826087,-5.0978260869565215,7.119565217391304,-6.9534625951603175,30.574810573436093,23.621347978275775,499.85531984035015,25.86000333547632
1.7103254132651782E12,1.9021739130434783,-5.054347826086956,7.119565217391304,-6.928869119747772,30.6051737791507,23.676304659402927,499.85394952940345,24.85441146545547
1.71032541328471E12,1.858695652173913,-5.0,7.163043478260869,-6.873768195363069,30.604741049378045,23.730972854014976,499.84471796092015,21.646080809364417
1.7103254133042417E12,1.75,-5.0978260869565215,7.130434782608695,-6.871604546499794,30.578993627905085,23.707389081405292,499.84969435330567,19.712716306771792
1.7103254133237734E12,1.8152173913043477,-5.130434782608695,7.239130434782608,-6.975026962164279,30.44650619584396,23.47147923367968,499.84370825811726,17.068737395851304
1.7103254133433052E12,1.8804347826086956,-5.021739130434782,7.3478260869565215,-6.9174739024011975,30.459271724137277,23.54179782173608,499.84767494769994,16.175871631607013
1.710325413362837E12,1.9130434782608696,-4.934782608695652,7.423913043478261,-6.953895324932972,30.50290530954663,23.549009984613658,499.8345488112627,17.076238045243986
1.710325413382369E12,2.010869565217391,-5.043478260869565,7.076086956521739,-6.9178345105450765,30.465257819325668,23.54742330878059,499.82171116134066,17.452496582567285
1.7103254134019006E12,1.858695652173913,-5.076086956521739,7.076086956521739,-6.848958355064196,30.379793689226354,23.53083533416216,499.84385250137484,15.479104576004097
1.7103254134214324E12,1.7717391304347825,-5.065217391304348,7.163043478260869,-7.008058668143591,32.161774893018595,25.153716224875,499.8352700275505,13.299516832770925
1.710325413440964E12,1.75,-5.010869565217392,7.239130434782608,-7.297771250935942,31.220515515865745,23.922744264929804,499.83750579804257,14.724568095751774
1.7103254134604958E12,1.7717391304347825,-5.065217391304348,7.010869565217391,-6.987287639056163,30.710254992277026,23.722967353220863,499.8412561227389,17.88061057098038
1.7103254134800276E12,1.7608695652173914,-4.880434782608695,7.304347826086956,-6.944663756449671,30.6394315528192,23.69476779636953,499.83599124383824,16.814941384189297
1.7103254134995596E12,1.8695652173913042,-5.043478260869565,7.054347826086956,-6.9435098103892585,30.607986522672956,23.664476712283697,499.83490941940664,18.0217525984946
1.7103254135190913E12,1.826086956521739,-5.054347826086956,7.08695652173913,-6.897063481457649,30.601134967939256,23.704071486481606,499.83505366266417,18.951111906899442
1.710325413538623E12,1.9130434782608696,-5.08695652173913,7.1521739130434785,-6.909684766493412,30.614693834149104,23.70500906765569,499.8486846505028,20.703162634749727
1.7103254135581548E12,1.9130434782608696,-5.0978260869565215,7.108695652173913,-6.848092895518887,30.62904603827549,23.7809531427566,499.825461486037,20.36902312863149
1.7103254135776865E12,1.858695652173913,-5.010869565217392,7.130434782608695,-6.910045374637291,30.641739444940026,23.731694070302733,499.8339718382325,20.368878885373938
1.7103254135972185E12,1.9021739130434783,-4.967391304347826,7.1521739130434785,-6.8255909473408405,30.680468759592628,23.854877812251786,499.8383712575879,20.854834420065217
1.7103254136167502E12,1.8043478260869565,-4.967391304347826,7.130434782608695,-6.774240347652477,30.731675116023435,23.95743476837096,499.8308706081952,21.263331325451293
1.710325413636282E12,1.7282608695652173,-5.010869565217392,7.0978260869565215,-6.727938261978419,30.81338892142641,24.08545065944799,499.83692882501236,21.527224365141915
1.7103254136558137E12,1.7065217391304348,-5.065217391304348,7.326086956521739,-6.727505532205765,30.808845258813534,24.08133972660777,499.8483961639877,22.000198006653548
1.7103254136753455E12,1.858695652173913,-5.173913043478261,7.4021739130434785,-6.769480320153275,30.77184686325155,24.002366543098276,499.8433476499734,23.357671303471484
1.7103254136948772E12,1.9891304347826086,-5.184782608695652,7.228260869565217,-6.811094499956907,30.703980410573536,23.892885910616627,499.8413282443677,21.687767110796823
1.7103254137144092E12,2.108695652173913,-5.08695652173913,7.076086956521739,-6.844919543852752,30.637916998614912,23.79299745476216,499.8412561227389,19.430504373372123
1.710325413733941E12,2.0217391304347827,-5.032608695652174,7.043478260869565,-6.893601643276411,30.597024035099036,23.703422391822624,499.8507761777373,17.774952384823845
1.7103254137534727E12,1.9565217391304348,-5.032608695652174,7.163043478260869,-6.905285347138089,30.602000427484565,23.696715080346475,499.8561131782667,18.059472210344342
1.7103254137730044E12,1.858695652173913,-5.108695652173913,7.08695652173913,-6.90441988759278,30.584691236578376,23.680271348985595,499.8675083956133,20.88339458506043
1.7103254137925361E12,1.7934782608695652,-5.065217391304348,7.173913043478261,-6.863815410592009,30.577983925102224,23.714168514510217,499.87435995034696,20.187925718775478
1.7103254138120679E12,1.8369565217391304,-4.9021739130434785,7.293478260869565,-6.874056681878172,30.590893696653094,23.71683701477492,499.8693114363327,20.76511511386813
1.7103254138315999E12,1.8804347826086956,-4.956521739130435,7.271739130434782,-6.869296654378969,30.57033903245199,23.701042378073023,499.8741435854607,20.581060717232315
1.7103254138511316E12,1.8804347826086956,-5.1521739130434785,7.032608695652174,-6.88848100763333,30.573872992262007,23.685391984628676,499.8817884781109,19.4785373781368
1.7103254138706633E12,1.858695652173913,-5.173913043478261,7.076086956521739,-6.93680249891311,30.56579536983912,23.62899287092601,499.8761629910664,17.943356388015317
1.710325413890195E12,2.0,-5.032608695652174,7.239130434782608,-6.928508511603893,30.567886897073617,23.639378385469723,499.8949146145481,19.035349969309568
1.7103254139097268E12,2.010869565217391,-5.032608695652174,7.163043478260869,-6.921512713612642,30.544303124463934,23.62279041085129,499.88135574833825,21.283381138250967
1.7103254139292585E12,1.717391304347826,-5.0978260869565215,7.130434782608695,-6.9383891747461774,30.554905003893975,23.616515829147797,499.9032086018573,21.435485653339107
1.7103254139487905E12,1.5217391304347825,-5.0978260869565215,7.217391304347826,-6.971781488869368,30.554039544348665,23.582258055479297,499.90984379170465,20.56605941844695
1.7103254139683223E12,1.5652173913043477,-5.08695652173913,7.163043478260869,-6.9150938886515965,30.545817678668225,23.630723790016628,499.8996746420473,18.59735531775419
1.710325413987854E12,1.967391304347826,-4.945652173913043,7.217391304347826,-7.00517380299256,30.543581908176176,23.538408105183617,499.91099773776506,16.960699195945168
1.7103254140073857E12,2.141304347826087,-4.945652173913043,7.108695652173913,-6.973728772846314,30.55843896370399,23.584710190857674,499.9091946970457,16.776139947907918
1.7103254140269175E12,2.0652173913043477,-5.054347826086956,6.989130434782608,-7.01253020912769,30.645057039863712,23.632526830736023,499.8965734120099,16.718586888144838
1.7103254140464492E12,1.7826086956521738,-5.173913043478261,7.184782608695652,-7.022194507383646,30.67505963743444,23.652865130050795,499.90486739931913,19.717620577528546
1.7103254140659812E12,1.5108695652173914,-5.1521739130434785,7.315217391304348,-6.966083880196081,30.649240094332708,23.683156214136627,499.90032373670624,22.85757992954015
1.710325414085513E12,1.6195652173913042,-5.032608695652174,7.315217391304348,-7.0343830626467545,30.57228631642894,23.537903253782186,499.9123680487118,24.70620151832122
1.7103254141050447E12,1.9130434782608696,-5.021739130434782,7.217391304347826,-7.071597823095063,30.55786199067378,23.486264167578717,499.893977033374,23.411906768310878
1.7103254141245764E12,2.0869565217391304,-5.032608695652174,7.119565217391304,-7.09236885218249,30.54466373260781,23.45229488042532,499.8940491550028,20.011299849903565
1.7103254141441082E12,2.0,-5.054347826086956,7.0978260869565215,-7.082488189040207,30.52699393355774,23.444505744517535,499.89981888530485,19.079921135893006
1.71032541416364E12,1.7826086956521738,-4.967391304347826,7.217391304347826,-7.090565811463096,30.45350199383521,23.362936182372117,499.9073916563263,20.458381826684693
1.7103254141831719E12,1.7717391304347825,-4.880434782608695,7.206521739130435,-6.825879433855944,31.126036182169464,24.30015674831352,499.92296992814187,23.217178370616242
1.7103254142027036E12,1.826086956521739,-4.891304347826087,7.25,-7.259114057912119,32.09520662965854,24.83609257174642,499.92066203602104,22.723361578388403
1.7103254142222354E12,1.7717391304347825,-4.880434782608695,7.206521739130435,-7.217355634850936,30.844617586686326,23.62726195183539,499.9066704400385,22.55640000777245
1.710325414241767E12,1.8152173913043477,-5.043478260869565,7.08695652173913,-7.105855596763563,30.680540881221404,23.57468528445784,499.9059492237508,21.021723869052398
1.7103254142612988E12,1.6739130434782608,-5.076086956521739,7.293478260869565,-7.039575819918611,30.61115987433909,23.57158405442048,499.8836636404591,21.151110071076165
1.7103254142808306E12,1.7717391304347825,-5.0978260869565215,7.0,-7.015487195907498,30.60639984683989,23.590912650932392,499.8864763839813,21.912570227690964
1.7103254143003625E12,1.75,-5.010869565217392,7.3478260869565215,-6.973584529588763,30.612313820399503,23.63872929081074,499.8970061417826,21.201667332847993
1.7103254143198943E12,1.6956521739130435,-4.913043478260869,7.315217391304348,-6.96644448833996,30.631642416911415,23.665197928571455,499.88243757276985,20.112486495076002
1.710325414339426E12,1.7065217391304348,-4.934782608695652,7.173913043478261,-6.949568027206425,30.676213583494853,23.726645556288428,499.8826539376562,18.606731129495042
1.7103254143589578E12,1.641304347826087,-5.0978260869565215,7.054347826086956,-6.903626549676246,30.703114951028226,23.79948840135198,499.90126131788037,17.651768642874796
1.7103254143784895E12,1.576086956521739,-5.163043478260869,7.260869565217391,-6.823643663363894,30.72020777704809,23.896564113684192,499.8960685606085,16.52695972048756
1.7103254143980215E12,1.7282608695652173,-5.184782608695652,7.25,-6.840736489383756,30.901449430161648,24.060712940777893,499.8940491550028,22.4790856217248
1.7103254144175532E12,1.7826086956521738,-5.163043478260869,7.271739130434782,-6.780659172613523,30.9084452281529,24.127786055539378,499.89340006034377,26.171929379931616
1.710325414437085E12,1.826086956521739,-4.956521739130435,7.282608695652174,-6.807344175260565,30.899069416412047,24.091725241151483,499.89282308731356,26.63704176390669
1.7103254144566167E12,1.826086956521739,-4.880434782608695,7.271739130434782,-6.8537183825633985,30.829760531158513,23.976042148595113,499.8882794247007,26.790155981797696
1.7103254144761484E12,1.8695652173913042,-4.739130434782608,7.0978260869565215,-6.882278547558612,30.720135655419313,23.8378571078607,499.9021267774257,26.85636363701387
1.7103254144956802E12,1.891304347826087,-4.793478260869565,7.217391304347826,-6.936369769140455,30.620824172595047,23.68445440345459,499.9128007784845,26.57090623031929
1.7103254145152122E12,1.9130434782608696,-4.978260869565217,7.119565217391304,-6.9404085803519,30.594427656463107,23.654019076111208,499.9066704400385,27.367705985034227
1.710325414534744E12,1.858695652173913,-5.032608695652174,7.239130434782608,-6.964569325991789,30.595797967409847,23.63122864141806,499.91316138662836,27.9353032034997
1.7103254145542756E12,1.826086956521739,-5.130434782608695,7.1521739130434785,-6.974954840535503,30.58360941214674,23.608654571611236,499.921960225339,27.772668930610294
1.7103254145738074E12,1.7717391304347825,-5.108695652173913,7.380434782608695,-6.961540217583206,30.60603923869601,23.644499021112804,499.92268144162676,27.081960091824545
1.710325414593339E12,1.7391304347826086,-5.184782608695652,7.293478260869565,-6.948846810918667,30.59284098063004,23.643994169711373,499.9235469011721,27.30157045144683
1.7103254146128708E12,1.8695652173913042,-5.08695652173913,7.228260869565217,-6.963126893416273,30.60091860305293,23.637791709636655,499.9295329963605,27.577435681514228
1.7103254146324028E12,1.891304347826087,-4.978260869565217,7.228260869565217,-6.953751081675421,30.58995611547901,23.636205033803588,499.92946087473166,28.33795825695494
1.7103254146519346E12,1.8369565217391304,-4.956521739130435,7.239130434782608,-6.967742677657924,30.594499778091883,23.62675710043396,499.9249893337476,29.012656094152465
1.7103254146714663E12,1.684782608695652,-4.989130434782608,7.195652173913043,-6.982094881784306,30.593129467145143,23.611034585360837,499.9326342263978,30.13155104298008
1.710325414690998E12,1.5978260869565217,-4.945652173913043,7.076086956521739,-6.981157300610221,30.581806371427344,23.600649070817123,499.9262875230655,30.659553487247646
1.7103254147105298E12,1.5652173913043477,-4.989130434782608,7.141304347826087,-6.98887431488923,30.55685228787092,23.56797797298169,499.9315524019662,30.454944426410727
1.7103254147300615E12,1.6630434782608696,-5.032608695652174,7.217391304347826,-6.977839705686534,30.554255909234993,23.576416203548458,499.93227361825393,30.652918297400273
1.7103254147495935E12,1.75,-5.010869565217392,7.217391304347826,-6.98288821970084,30.550144976394773,23.567256756693933,499.9235469011721,31.071512230814964
1.7103254147691252E12,1.7391304347826086,-5.032608695652174,7.239130434782608,-6.997745275228653,30.558006233931334,23.56026095870268,499.9410724569646,30.758143753784154
1.710325414788657E12,1.7282608695652173,-5.08695652173913,7.1521739130434785,-7.004668951591129,30.553029841545804,23.548360889954676,499.9469864305242,29.81104252470047
1.7103254148081887E12,1.6956521739130435,-5.1521739130434785,7.184782608695652,-6.97192573212692,30.611304117596642,23.639378385469723,499.9410003353358,27.910060633428174
1.7103254148277205E12,1.7391304347826086,-5.076086956521739,7.206521739130435,-6.971709367240592,30.622410848428114,23.65070148118752,499.9410724569646,27.336910049546965
1.7103254148472522E12,1.7717391304347825,-5.130434782608695,7.260869565217391,-6.969762083263646,30.638205485130012,23.668443401866366,499.94705855215295,26.975869175895355
1.7103254148667842E12,1.7282608695652173,-5.010869565217392,7.141304347826087,-6.984474895533907,30.598610710932103,23.614135815398196,499.9521070661673,27.41220502998889
1.710325414886316E12,1.7065217391304348,-5.08695652173913,7.206521739130435,-7.026305440223866,30.531176988026736,23.50487154780287,499.9693441354447,27.968767639251666
1.7103254149058477E12,1.641304347826087,-4.923913043478261,7.0978260869565215,-7.015487195907498,30.515815081097493,23.500327885189996,499.95816528298445,27.97540282909904
1.7103254149253794E12,1.5978260869565217,-5.010869565217392,7.0978260869565215,-7.030055764920207,30.517113270415457,23.48705750549525,499.947707646812,27.575272032650954
1.7103254149449111E12,1.6195652173913042,-5.021739130434782,7.130434782608695,-7.012458087498914,30.4067671783885,23.394309090889585,499.9490058361299,26.92899011719109
1.7103254149644429E12,1.6630434782608696,-5.032608695652174,7.184782608695652,-6.799482917724004,30.618588402102997,23.819105484378994,499.9569392152953,26.692791782950376
1.7103254149839749E12,1.717391304347826,-5.032608695652174,7.163043478260869,-7.262071044691926,31.973176833769898,24.711105789077973,499.97691690646616,26.46827715257134
1.7103254150035066E12,1.75,-5.076086956521739,7.206521739130435,-7.340034525398556,30.9221483376203,23.582113812221746,499.9798017716172,26.386346982282042
1.7103254150230383E12,1.7391304347826086,-5.065217391304348,6.989130434782608,-7.078809985972642,30.687176071068777,23.608366085096133,499.98340785305595,26.059275395783832
1.71032541504257E12,1.608695652173913,-4.956521739130435,7.3478260869565215,-7.052197104954375,30.631858781797742,23.57966167684337,499.9712914194216,25.264855654818497
1.7103254150621018E12,1.7282608695652173,-5.054347826086956,6.8478260869565215,-7.045778279993329,30.63993640422063,23.594158124227302,499.97244536548203,24.514790715550273
1.7103254150816338E12,1.6521739130434783,-4.956521739130435,7.141304347826087,-7.035609130335943,30.63308484948693,23.59747571915099,499.9663150270361,23.966449971967933
1.7103254151011655E12,1.7826086956521738,-5.021739130434782,7.054347826086956,-7.029695156776328,30.65623589232396,23.626540735547632,499.9630695537412,23.859709961379764
1.7103254151206973E12,1.8043478260869565,-5.043478260869565,7.1521739130434785,-7.018804790831184,30.679819664933643,23.66101487410246,499.95102524173564,21.752171725293604
1.710325415140229E12,1.7717391304347825,-5.108695652173913,7.141304347826087,-7.004957438106232,30.716601695609295,23.711644257503064,499.9487894712436,20.236968426343015
1.7103254151597607E12,1.7391304347826086,-5.065217391304348,7.130434782608695,-6.994860410077621,30.780862066848528,23.786001656770907,499.90263162882707,18.17566015430214
1.7103254151792925E12,1.7282608695652173,-5.076086956521739,7.108695652173913,-6.95137106792582,30.83920846452814,23.887837396602322,499.8999631285624,17.089652668196283
1.7103254151988245E12,1.75,-5.054347826086956,7.0978260869565215,-6.927354565543481,30.90433429531268,23.976979729769198,499.9339324157158,17.994130014673473
1.7103254152183562E12,1.75,-4.978260869565217,7.141304347826087,-6.948486202774788,30.913349498909653,23.964863296134865,499.9371778890107,18.402266311915675
1.710325415237888E12,1.717391304347826,-4.956521739130435,7.1521739130434785,-6.986927030912284,30.883995995997907,23.897068965085623,499.929677239618,18.13354112309708
1.7103254152574197E12,1.7608695652173914,-5.0,7.206521739130435,-7.073472985443233,30.774875971660137,23.701402986216902,499.9337881724582,17.749637693123542
1.7103254152769514E12,1.7717391304347825,-5.043478260869565,7.184782608695652,-7.102177393695998,30.70751437038355,23.60533697668755,499.94395732211564,17.15997125625268
1.7103254152964832E12,1.7391304347826086,-5.065217391304348,7.141304347826087,-7.114149584072779,30.663736541716645,23.549586957643864,499.92960511798924,17.016449214988853
1.7103254153160151E12,1.7391304347826086,-5.076086956521739,7.228260869565217,-7.148840087513935,30.66979475853381,23.520954671019876,499.93429302385965,16.092426907113424
1.7103254153355469E12,1.7934782608695652,-5.076086956521739,7.108695652173913,-7.142853992325544,30.6960470314082,23.553193039082654,499.9332833210568,15.09815813281037
1.7103254153550786E12,1.75,-5.054347826086956,7.076086956521739,-7.144945519560042,30.69583066652187,23.55088514696183,499.92650388795187,12.437014274241243
1.7103254153746104E12,1.7065217391304348,-4.989130434782608,7.293478260869565,-7.139752762288185,30.702754342884347,23.56300158059616,499.93443726711723,11.864224298503911
1.710325415394142E12,1.7826086956521738,-5.0,7.228260869565217,-7.147902506339849,30.714654411632353,23.566751905292502,499.9340766589733,11.89458750421852
1.7103254154136738E12,1.7934782608695652,-5.054347826086956,7.239130434782608,-7.147253411680867,30.706360424323137,23.55910701264227,499.9203014278772,12.223606374693677
1.7103254154332058E12,1.7282608695652173,-5.076086956521739,7.173913043478261,-7.159441966943976,30.697633707241266,23.53819174029729,499.9235469011721,12.741151182788752
1.7103254154527375E12,1.717391304347826,-5.054347826086956,7.184782608695652,-7.154754061073549,30.683281503114884,23.528527442041334,499.9311196721935,13.654355246347816
1.7103254154722693E12,1.7391304347826086,-5.0,7.195652173913043,-7.166077156791348,30.67599721860853,23.50992006181718,499.92621540143676,15.238434700779285
1.710325415491801E12,1.7608695652173914,-5.0,7.184782608695652,-7.157783169482133,30.66171713611092,23.503933966628786,499.92066203602104,15.63654609162165
1.7103254155113328E12,1.75,-4.967391304347826,7.228260869565217,-7.152374047323948,30.6370515390696,23.48467749174565,499.9291002665878,15.94666909535755
1.7103254155308645E12,1.75,-5.043478260869565,7.195652173913043,-7.1711977924344295,30.652341324370067,23.481143531935636,499.91438745431753,16.19628205255056
1.7103254155503965E12,1.7282608695652173,-5.065217391304348,7.25,-7.18129482046304,30.66359229845909,23.48229747799605,499.91402684617367,16.338073174723768
1.7103254155699282E12,1.7282608695652173,-5.076086956521739,7.271739130434782,-7.1437194518708536,30.712346519511527,23.568627067640673,499.9166232248096,16.461978132960574
1.71032541558946E12,1.7391304347826086,-5.021739130434782,7.217391304347826,-7.132107869637951,30.723741736858102,23.59163386722015,499.90962742681836,16.873864754899117
1.7103254156089917E12,1.75,-4.978260869565217,7.206521739130435,-7.125977531192009,30.736363021893865,23.610385490701855,499.89166914125315,16.961276168975374
1.7103254156285234E12,1.75,-4.956521739130435,7.239130434782608,-7.132540599410606,30.687392435955104,23.554851836544497,499.89765523644155,17.591835569362114
1.7103254156480552E12,1.7717391304347825,-4.967391304347826,7.217391304347826,-7.1608843995194915,30.60481317100682,23.44392877148733,499.8972946282977,18.557472057041178
1.7103254156675872E12,1.7717391304347825,-4.967391304347826,7.25,-7.168240805654622,30.60805864430173,23.43981783864711,499.8975831148128,19.985119698657954
1.710325415687119E12,1.7826086956521738,-5.065217391304348,7.228260869565217,-7.172423860123618,30.606760454983768,23.43433659486015,499.9178492924988,22.774784299705544
1.7103254157066506E12,1.7717391304347825,-5.054347826086956,7.206521739130435,-7.153095263611706,30.502111971630097,23.34901670801839,499.90876196727305,24.290636693315115
1.7103254157261824E12,1.717391304347826,-5.010869565217392,7.239130434782608,-6.93370126887575,30.690060936219805,23.756359667344054,499.91171895405284,25.25692227565316
1.710325415745714E12,1.6956521739130435,-5.043478260869565,7.260869565217391,-7.388139651792009,32.14453782374118,24.756398171949172,499.92686449609573,25.185161255021246
1.7103254157652458E12,1.7717391304347825,-5.021739130434782,7.260869565217391,-7.444610887123453,31.0565109320296,23.611900044906147,499.91965233321815,25.75845608216001
1.7103254157847778E12,1.7608695652173914,-4.989130434782608,7.032608695652174,-7.161028642777043,30.75922557821579,23.598196935438747,499.92037354950594,25.82300493991434
1.7103254158043096E12,1.6521739130434783,-4.978260869565217,7.456521739130435,-7.141627924636356,30.704196775459863,23.562568850823506,499.9289560233303,25.336688797079184
1.7103254158238413E12,1.75,-5.076086956521739,6.967391304347826,-7.116313232936053,30.692729436484512,23.576416203548458,499.9150365489765,25.36193136715071
1.710325415843373E12,1.684782608695652,-5.010869565217392,7.260869565217391,-7.1228041795258745,30.71588047932154,23.593076299795666,499.9063819535234,25.33741001336694
1.7103254158629048E12,1.6630434782608696,-5.010869565217392,7.184782608695652,-7.103042853241307,30.7145101683748,23.611467315133492,499.9189311169304,25.79855570775935
1.7103254158824368E12,1.7065217391304348,-5.021739130434782,7.206521739130435,-7.089700351917786,30.74364730640022,23.653946954482432,499.91143046753774,24.990144370811507
1.7103254159019685E12,1.7391304347826086,-5.0,7.206521739130435,-7.081839094381225,30.781078431734855,23.699239337353628,499.90832923750037,24.165000815987685
1.7103254159215002E12,1.7608695652173914,-5.0,7.25,-7.03856611711575,30.83033750418872,23.79177138707297,499.91582988689305,24.151081341633958
1.710325415941032E12,1.7065217391304348,-5.076086956521739,7.282608695652174,-7.000053167349479,30.897410618950204,23.897357451600726,499.9190032385592,24.796209311033408
1.7103254159605637E12,1.7608695652173914,-5.076086956521739,7.195652173913043,-6.981806395269203,30.984533546511358,24.002727151242155,499.90191041253934,25.311157740492554
1.7103254159800955E12,1.7826086956521738,-5.032608695652174,7.163043478260869,-6.979642746405929,30.99571239897161,24.01606965256568,499.9189311169304,25.443212442781025
1.7103254159996274E12,1.75,-5.010869565217392,7.195652173913043,-7.028180602572037,30.957848543864316,23.92966794129228,499.9091225754169,25.9518141689079
1.7103254160191592E12,1.75,-5.021739130434782,7.217391304347826,-7.076862701995696,30.813100434911306,23.73623773291561,499.91907536018795,26.203158045191532
1.710325416038691E12,1.7608695652173914,-5.0,7.206521739130435,-7.108884705172146,30.743719428028996,23.634834722856848,499.9147480624614,25.799421167304658
1.7103254160582227E12,1.8043478260869565,-5.010869565217392,7.217391304347826,-7.1317472614940725,30.731242386250784,23.59949512475671,499.9151807922341,26.00172233602075
1.7103254160777544E12,1.7826086956521738,-5.0,7.282608695652174,-7.13246847778183,30.718765344472573,23.58629686669074,499.8975831148128,26.53340298335588
1.7103254160972861E12,1.7608695652173914,-5.054347826086956,7.184782608695652,-7.131314531721418,30.720568385191967,23.58925385347055,499.91763292761243,26.947236889271366
1.710325416116818E12,1.7282608695652173,-4.989130434782608,7.119565217391304,-7.131170288463866,30.721433844737277,23.59026355627341,499.9192196034455,26.227102425945095
1.7103254161363499E12,1.684782608695652,-5.021739130434782,7.282608695652174,-7.127419963767525,30.74898430692963,23.621564343162103,499.9130892649996,26.641080575118135
1.7103254161558816E12,1.7608695652173914,-5.021739130434782,7.163043478260869,-7.113644732671348,30.730665413220578,23.617020680549228,499.91316138662836,26.638051466709552
1.7103254161754133E12,1.7717391304347825,-5.032608695652174,7.228260869565217,-7.113067759641142,30.731242386250784,23.61817462660964,499.91114198102264,26.668486794052935
1.710325416194945E12,1.7717391304347825,-5.054347826086956,7.1521739130434785,-7.105422866990908,30.7145101683748,23.60908730138389,499.918426265529,27.16100539696281
1.7103254162144768E12,1.717391304347826,-5.043478260869565,7.1521739130434785,-7.101311934150688,30.716962303753178,23.615650369602488,499.91143046753774,27.280510935844298
1.7103254162340088E12,1.717391304347826,-5.0,7.119565217391304,-7.101672542294567,30.699220383074334,23.597547840779765,499.9192196034455,27.336765806289414
1.7103254162535405E12,1.717391304347826,-5.021739130434782,7.130434782608695,-7.103547704642738,30.68732031432633,23.58377260968359,499.91777717087,27.226996687292658
1.7103254162730723E12,1.7717391304347825,-4.978260869565217,7.173913043478261,-7.108884705172146,30.684291205917745,23.575406500745597,499.9223208334829,27.150619882419097
1.710325416292604E12,1.7608695652173914,-5.021739130434782,7.217391304347826,-7.103908312786617,30.678665718873233,23.574757406086615,499.901044952994,27.01697850429756
1.7103254163121357E12,1.7608695652173914,-5.065217391304348,7.195652173913043,-7.116313232936053,30.666477163610125,23.55016393067407,499.91741656272615,27.060251481563032
1.7103254163316675E12,1.7608695652173914,-5.08695652173913,7.206521739130435,-7.102682245097428,30.660995919823165,23.558313674725735,499.9221765902253,26.93245195537233
1.7103254163511995E12,1.7608695652173914,-5.065217391304348,7.173913043478261,-7.112346543353384,30.678160867471803,23.565814324118417,499.93400453734455,26.823548295920887
1.7103254163707312E12,1.75,-5.065217391304348,7.141304347826087,-7.093955528015558,30.748551577156974,23.654596049141414,499.93696152412434,26.703105175865314
1.710325416390263E12,1.8043478260869565,-5.043478260869565,7.141304347826087,-7.090205203319217,30.754681915602916,23.664476712283697,499.93912517298764,26.880235896138657
1.7103254164097947E12,1.7717391304347825,-5.032608695652174,7.1521739130434785,-7.088041554455943,30.738743035643466,23.65070148118752,499.94561611957744,26.91961430545024
1.7103254164293264E12,1.7065217391304348,-5.0,7.228260869565217,-7.089988838432889,30.69417186906003,23.604183030627137,499.9386203215862,26.930144063251504
1.7103254164488582E12,1.75,-5.043478260869565,7.184782608695652,-7.128934517971817,30.65371163531681,23.524777117344993,499.93191301011007,26.588143299596705
1.7103254164683901E12,1.7826086956521738,-5.0,7.195652173913043,-7.134055153614898,30.648518878044953,23.514463724430055,499.9419379165099,26.766355844301685
1.7103254164879219E12,1.7391304347826086,-5.0978260869565215,7.173913043478261,-7.131170288463866,30.652774054142725,23.521603765678858,499.9482846198422,27.023180964372276
1.7103254165074536E12,1.7391304347826086,-5.065217391304348,7.141304347826087,-7.046066766508432,30.512353242916255,23.466286476407824,499.914892305719,27.310369290157475
1.7103254165269854E12,1.7065217391304348,-5.032608695652174,7.217391304347826,-6.887759791345572,31.256576330253644,24.36881653890807,499.9125122919694,27.689729057518132
1.710325416546517E12,1.75,-5.032608695652174,7.173913043478261,-7.444250278979574,31.525085154185913,24.08083487520634,499.92974936124676,27.748868793114283
1.7103254165660488E12,1.8043478260869565,-5.010869565217392,7.119565217391304,-7.292794858550413,30.881111130846875,23.588316272296463,499.92008506299084,28.008218170192027
1.7103254165855808E12,1.7391304347826086,-4.978260869565217,7.032608695652174,-7.121361746950359,30.75684556446619,23.63548381751583,499.92859541518635,27.307123816862564
1.7103254166051125E12,1.641304347826087,-5.054347826086956,7.25,-7.110759867520317,30.740618197991637,23.62985833047132,499.92066203602104,27.06768000932694
1.7103254166246443E12,1.8152173913043477,-5.08695652173913,6.956521739130435,-7.104124677672944,30.736002413749986,23.63187773607704,499.93342756431434,26.835015634896237
1.710325416644176E12,1.6739130434782608,-5.08695652173913,7.163043478260869,-7.094748865932091,30.751075834164126,23.656326968232033,499.9151086706053,26.248883157835387
1.7103254166637078E12,1.7282608695652173,-5.054347826086956,7.130434782608695,-7.08140636460857,30.765139551775405,23.683733187166833,499.9217438604527,25.785213206435827
1.7103254166832397E12,1.7282608695652173,-5.08695652173913,7.173913043478261,-7.062077768096659,30.789805148816725,23.727727380720065,499.92989360450434,23.789751981467248
1.7103254167027715E12,1.75,-5.08695652173913,7.130434782608695,-7.045994644879657,30.831058720476477,23.78506407559682,499.92809056378496,22.942683451495583
1.7103254167223032E12,1.7282608695652173,-5.054347826086956,7.1521739130434785,-7.026449683481418,30.913133134023326,23.88668345054191,499.910060156591,22.179780862305268
1.710325416741835E12,1.7934782608695652,-5.130434782608695,7.1521739130434785,-6.999476194319272,30.965060706741895,23.965584512422623,499.92051779276346,22.165789266322765
1.7103254167613667E12,1.8478260869565217,-5.043478260869565,7.141304347826087,-6.979137895004499,31.002924561849188,24.02378666684469,499.91741656272615,22.342270891937126
1.7103254167808984E12,1.7608695652173914,-5.010869565217392,7.119565217391304,-7.024213912989368,31.017132522718015,23.992918609728648,499.94749128192564,22.842794995641114
1.7103254168004304E12,1.7282608695652173,-5.043478260869565,7.076086956521739,-7.062726862755641,30.951646083789598,23.88891922103396,499.96227621582466,22.759999365806504
1.7103254168199622E12,1.7608695652173914,-5.076086956521739,7.108695652173913,-7.122155084866892,30.821971395250728,23.699816310383834,499.95131372825074,22.549259966523646
1.710325416839494E12,1.7282608695652173,-5.054347826086956,7.141304347826087,-7.164634724215833,30.794276689800824,23.62964196558499,499.9594634723024,22.19824399927187
1.7103254168590256E12,1.717391304347826,-5.0978260869565215,7.043478260869565,-7.183025739553659,30.771269890221348,23.588244150667688,499.9683344326418,22.512189449332887
1.7103254168785574E12,1.7282608695652173,-5.032608695652174,7.1521739130434785,-7.191319726862876,30.77105352533502,23.579733798472144,499.9516743363946,22.318687119327443
1.710325416898089E12,1.7282608695652173,-5.054347826086956,7.065217391304348,-7.198027038339024,30.787425135067124,23.5893980967281,499.9711471761641,21.70478781518791
1.710325416917621E12,1.7065217391304348,-5.065217391304348,7.119565217391304,-7.197161578793715,30.79297850048286,23.595816921689146,499.9693441354447,20.999654650647003
1.7103254169371528E12,1.684782608695652,-5.054347826086956,7.217391304347826,-7.181655428606919,30.80170521756473,23.62004978895781,499.9406397271919,21.115121378317045
1.7103254169566846E12,1.7717391304347825,-5.065217391304348,7.141304347826087,-7.192978524324719,30.80769131275312,23.614712788428402,499.94922220101625,21.897785293791927
1.7103254169762163E12,1.7282608695652173,-5.076086956521739,7.163043478260869,-7.189516686143481,30.80242643385249,23.612909747709008,499.9544149582881,21.760754199117923
1.710325416995748E12,1.717391304347826,-5.065217391304348,7.130434782608695,-7.180212996031403,30.7851172429463,23.604904246914895,499.9502319038191,22.244762449832255
1.7103254170152798E12,1.7391304347826086,-5.021739130434782,7.1521739130434785,-7.18490090190183,30.77941963427301,23.59451873237118,499.9538379852579,21.884659157354733
1.7103254170348118E12,1.7282608695652173,-5.010869565217392,7.163043478260869,-7.194853686672889,30.77242383628176,23.57757014960887,499.9610501481355,21.037230019239193
1.7103254170543435E12,1.7717391304347825,-5.043478260869565,7.1521739130434785,-7.199757957429643,30.75013825299004,23.550380295560398,499.96169924279445,19.93687032900695
1.7103254170738752E12,1.7608695652173914,-5.065217391304348,7.163043478260869,-7.191680335006755,30.751941293709436,23.56026095870268,499.9575161883255,18.816028096202388
1.710325417093407E12,1.7282608695652173,-5.054347826086956,7.173913043478261,-7.202426457694347,30.75100371253535,23.548577254841003,499.9604731751053,17.674054226166515
1.7103254171129387E12,1.7282608695652173,-5.043478260869565,7.195652173913043,-7.196584605763508,30.797305798209408,23.6007211924459,499.9783593390417,17.500168979188082
1.7103254171324705E12,1.75,-5.054347826086956,7.184782608695652,-7.179275414857318,30.823918679227674,23.644643264370355,499.9509531201069,17.42227762011023
1.7103254171520024E12,1.7608695652173914,-5.043478260869565,7.163043478260869,-7.1704765761466716,30.823197462939916,23.652720886793244,499.9617713644232,16.7470028098825
1.7103254171715342E12,1.75,-5.054347826086956,7.173913043478261,-7.18353059095509,30.740473954734085,23.556943363778995,499.96343016188507,16.43377857610924
1.710325417191066E12,1.7391304347826086,-5.021739130434782,7.173913043478261,-7.2050949579590515,30.70023008587719,23.49513512791814,499.95066463359177,16.75298890507089
1.7103254172105977E12,1.7391304347826086,-5.021739130434782,7.184782608695652,-7.206897998678446,30.71068772204968,23.503789723371234,499.93703364575316,17.56637663440426
1.7103254172301294E12,1.7391304347826086,-5.054347826086956,7.184782608695652,-7.20083978186128,30.70008584261964,23.49924606075836,499.94619309260764,18.11002947211617
1.7103254172496611E12,1.75,-5.065217391304348,7.163043478260869,-7.183746955841418,30.609573198506023,23.425826242664606,499.94893371450115,18.766624780490968
1.710325417269193E12,1.7717391304347825,-5.054347826086956,7.206521739130435,-6.967093582998942,31.327183404825142,24.3600898218262,499.942875497684,19.13192083024035
1.7103254172887249E12,1.75,-5.021739130434782,7.228260869565217,-7.372777744862765,32.33796803211785,24.965190287255083,499.9418657948811,19.49548596089911
1.7103254173082566E12,1.7717391304347825,-5.032608695652174,7.239130434782608,-7.347895782935117,30.965421314885774,23.61752553195066,499.9365287943517,20.59260017783644
1.7103254173277883E12,1.7608695652173914,-5.021739130434782,7.043478260869565,-7.191680335006755,30.85053156024594,23.658851225239186,499.9513858498795,21.04566824980596
1.71032541734732E12,1.6521739130434783,-4.978260869565217,7.413043478260869,-7.165139575617263,30.79932520381513,23.634185628197866,499.95571314760605,20.286660228569538
1.710325417366852E12,1.7934782608695652,-5.0978260869565215,6.923913043478261,-7.154465574558446,30.799902176845336,23.64543660228689,499.9552804178334,21.038167600413278
1.7103254173863838E12,1.717391304347826,-5.021739130434782,7.184782608695652,-7.13520909967531,30.80105612290575,23.665847023230437,499.9387645648438,21.04826462844189
1.7103254174059155E12,1.7608695652173914,-5.010869565217392,7.119565217391304,-7.124823585131597,30.822187760137055,23.697364175005458,499.92873965844393,21.437865667088708
1.7103254174254473E12,1.7608695652173914,-5.010869565217392,7.206521739130435,-7.113284124527469,30.83632359937711,23.72303947484964,499.93047057753455,21.180752060503014
1.710325417444979E12,1.7391304347826086,-5.065217391304348,7.173913043478261,-7.088041554455943,30.884717212285665,23.796675657829724,499.9298214828756,21.08555151051897
1.7103254174645107E12,1.7826086956521738,-5.076086956521739,7.173913043478261,-7.066549309080758,30.928278676066242,23.861729366985486,499.9273693474972,21.037230019239193
1.7103254174840427E12,1.75,-5.054347826086956,7.184782608695652,-7.01476597961974,31.01381492779433,23.99904894817459,499.92635964469434,20.9058244116097
1.7103254175035745E12,1.7717391304347825,-5.043478260869565,7.184782608695652,-6.9996925592056,31.058674580892873,24.058982021687275,499.92751359075476,21.231453565532394
1.7103254175231062E12,1.7282608695652173,-5.0,7.1521739130434785,-7.00156772155377,31.062208540702887,24.060640819149118,499.91885899530166,21.2704713667001
1.710325417542638E12,1.75,-4.989130434782608,7.163043478260869,-7.061933524839107,30.98640870885953,23.924475184020423,499.9218881037102,21.533210460330306
1.7103254175621697E12,1.7717391304347825,-4.989130434782608,7.163043478260869,-7.107514394225406,30.894525753799172,23.787011359573768,499.92333053628573,21.383485958991763
1.7103254175817014E12,1.7826086956521738,-5.010869565217392,7.173913043478261,-7.141267316492477,30.799253082186354,23.657985765693876,499.9225371983692,21.319369831010086
1.7103254176012334E12,1.7608695652173914,-5.043478260869565,7.184782608695652,-7.149705547059244,30.793194865369188,23.643489318309943,499.947707646812,21.34771363111897
1.7103254176207651E12,1.75,-5.032608695652174,7.271739130434782,-7.147902506339849,30.778698417985254,23.630795911645404,499.9246287256037,21.662163932581418
1.7103254176402969E12,1.7391304347826086,-5.054347826086956,7.195652173913043,-7.1636250214129715,30.79759428472451,23.63396926331154,499.93472575363234,21.67240520386758
1.7103254176598286E12,1.717391304347826,-5.043478260869565,7.108695652173913,-7.150210398460675,30.806609488321484,23.65639908986081,499.9109256161363,20.42434041790252
1.7103254176793604E12,1.6630434782608696,-5.0,7.271739130434782,-7.1499219119455715,30.804662204344538,23.654740292398966,499.9384760783287,20.92601846766692
1.710325417698892E12,1.7608695652173914,-5.021739130434782,7.184782608695652,-7.143214600469423,30.81302831328253,23.669813712813106,499.9195802115894,21.184862993343234
1.710325417718424E12,1.7717391304347825,-5.065217391304348,7.206521739130435,-7.128069058426507,30.81201861047967,23.68394955205316,499.9295329963605,21.53450864964827
1.7103254177379558E12,1.7717391304347825,-5.076086956521739,7.163043478260869,-7.123525395813632,30.801921582451058,23.678396186637425,499.92809056378496,21.68971439477377
1.7103254177574875E12,1.75,-5.054347826086956,7.173913043478261,-7.127708450282628,30.794493054687152,23.666784604404523,499.9306148207921,22.18576695749366
1.7103254177770193E12,1.7391304347826086,-5.021739130434782,7.184782608695652,-7.132973329183261,30.782737229196698,23.649763900013436,499.9343651454884,22.150066751249643
1.710325417796551E12,1.7608695652173914,-4.989130434782608,7.1521739130434785,-7.138454572970221,30.784107540143438,23.645652967173216,499.9245566039749,22.342270891937126
1.7103254178160828E12,1.7717391304347825,-5.010869565217392,7.173913043478261,-7.130737558691211,30.76780805204011,23.637070493348897,499.92744146912594,21.795156216043978
1.7103254178356147E12,1.7608695652173914,-5.054347826086956,7.184782608695652,-7.122443571381996,30.755763740034553,23.633320168652556,499.9210226441649,21.68711801613784
1.7103254178551465E12,1.7717391304347825,-5.032608695652174,7.206521739130435,-7.137661235053687,30.758287997041705,23.620626761988017,499.92809056378496,22.037268523844308
1.7103254178746782E12,1.7717391304347825,-5.054347826086956,7.184782608695652,-7.12698723399487,30.755907983292104,23.628920749297233,499.9314802803374,22.19672944506758
1.71032541789421E12,1.75,-5.021739130434782,7.184782608695652,-7.119847192746066,30.82709203089381,23.70724483814774,499.94237064628254,22.298997914671652
1.7103254179137417E12,1.7608695652173914,-5.010869565217392,7.195652173913043,-7.103836191157841,30.843607883883465,23.739771692725622,499.94143306510847,22.24620488240777
1.7103254179332734E12,1.7608695652173914,-5.043478260869565,7.1521739130434785,-7.0953979605910735,30.84043453221733,23.745036571626255,499.952828282455,22.8255579263637
1.7103254179528054E12,1.75,-5.043478260869565,7.195652173913043,-7.086310635365324,30.78288147245425,23.696570837088924,499.93616818620785,22.947227114108458
1.7103254179723372E12,1.717391304347826,-5.032608695652174,7.195652173913043,-7.126842990737319,30.731242386250784,23.604399395513465,499.94864522798605,23.289949094051018
1.710325417991869E12,1.75,-5.032608695652174,7.184782608695652,-7.1170344492238105,30.708740438072738,23.591705988848926,499.94951068753136,23.21256258637459
1.7103254180114006E12,1.75,-5.054347826086956,7.173913043478261,-7.1303769505473324,30.729727832046493,23.59935088149916,499.94410156537316,23.33769361230059
1.7103254180309324E12,1.7391304347826086,-5.054347826086956,7.173913043478261,-7.091431271008405,30.603082251916206,23.5116509809078,499.938043348556,23.201239490656793
1.710325418050464E12,1.717391304347826,-5.032608695652174,7.206521739130435,-6.873984560249396,30.92561017580154,24.051625615552144,499.94648157912275,23.024757865042435
1.710325418069996E12,1.7282608695652173,-5.010869565217392,7.239130434782608,-7.361526770773741,32.156149405974084,24.79462263520034,499.95347737711404,22.359435839585764
1.7103254180895278E12,1.8043478260869565,-5.032608695652174,7.217391304347826,-7.347895782935117,31.091273557099527,23.74337777416441,499.9503040254479,23.0013183356903
1.7103254181090596E12,1.75,-4.978260869565217,7.054347826086956,-7.11241866498216,30.860267980130672,23.74784931514851,499.92664813120945,22.435524157944222
1.7103254181285913E12,1.6630434782608696,-5.010869565217392,7.413043478260869,-7.073328742185682,30.796873068436753,23.72354432625107,499.90450679117527,22.11588109920992
1.710325418148123E12,1.8043478260869565,-5.076086956521739,6.945652173913043,-7.07679058036692,30.808340407412103,23.731549827045182,499.93674515923806,23.104957116241113
1.710325418167655E12,1.7065217391304348,-5.043478260869565,7.260869565217391,-7.053278929386011,30.808917380442306,23.755638451056296,499.9225371983692,22.97167634626345
1.7103254181871868E12,1.7065217391304348,-5.021739130434782,7.130434782608695,-7.044480090675365,30.819951989645006,23.77547189896964,499.92592691492166,23.576127717033355
1.7103254182067185E12,1.7608695652173914,-5.043478260869565,7.228260869565217,-7.0285412107159155,30.8515412630488,23.823000052332887,499.94208215976744,22.47648924308887
1.7103254182262502E12,1.7826086956521738,-5.043478260869565,7.195652173913043,-7.005245924621335,30.879091725241153,23.87384580061982,499.9228978065131,22.30245975285289
1.710325418245782E12,1.7934782608695652,-5.021739130434782,7.173913043478261,-6.986277936253302,30.951357597274495,23.965079661021193,499.94085609207826,21.655240256218942
1.7103254182653137E12,1.7717391304347825,-5.065217391304348,7.173913043478261,-6.949856513721528,31.010208846355543,24.060352332634015,499.94265913279764,21.518209161544938
1.7103254182848457E12,1.7934782608695652,-5.032608695652174,7.1521739130434785,-6.91314660467465,31.088316570319723,24.175169965645072,499.9270808609821,21.404329109707966
1.7103254183043774E12,1.7391304347826086,-5.0,7.173913043478261,-6.922810902930606,31.110530031982666,24.18771912905206,499.9396300243891,21.647162633796054
1.7103254183239092E12,1.75,-5.021739130434782,7.195652173913043,-6.94913529743377,31.05961216206696,24.11047686463319,499.9482846198422,21.508112133516327
1.710325418343441E12,1.7717391304347825,-5.021739130434782,7.184782608695652,-7.025367859049781,30.912339796106792,23.886971937057012,499.94439005188826,21.125362649603208
1.7103254183629727E12,1.7608695652173914,-5.032608695652174,7.217391304347826,-7.048951631659464,30.847213965322254,23.79826233366279,499.95715558018156,21.14916278709922
1.7103254183825044E12,1.7826086956521738,-5.043478260869565,7.217391304347826,-7.06085170040747,30.806465245063933,23.74561354465646,499.94568824120626,21.43029289606725
1.7103254184020364E12,1.8152173913043477,-5.0,7.25,-7.055586821506837,30.803147650140243,23.747560828633407,499.93999063253295,21.653292972241996
1.710325418421568E12,1.7608695652173914,-5.043478260869565,7.228260869565217,-7.0583995650290925,30.807763434381894,23.749363869352802,499.9381875918136,21.442553572959135
1.7103254184410999E12,1.717391304347826,-5.010869565217392,7.141304347826087,-7.063736565558502,30.828534463469325,23.764797897910825,499.94265913279764,20.748599260878475
1.7103254184606316E12,1.684782608695652,-5.010869565217392,7.260869565217391,-7.057101375711128,30.834664801915267,23.77756342620414,499.9374663755258,21.661154229778557
1.7103254184801633E12,1.7826086956521738,-5.010869565217392,7.184782608695652,-7.050466185863756,30.83372722074118,23.783261034877427,499.94734703866806,22.580128023639684
1.710325418499695E12,1.7717391304347825,-5.065217391304348,7.228260869565217,-7.058832294801748,30.841083626876312,23.782251332074566,499.95607375574997,22.416484047947414
1.710325418519227E12,1.7608695652173914,-5.054347826086956,7.163043478260869,-7.065106876505242,30.854858857972488,23.789751981467248,499.9683344326418,22.67114551915473
1.7103254185387588E12,1.7717391304347825,-5.054347826086956,7.184782608695652,-7.043398266243728,30.83134720699158,23.787948940747853,499.96054529673404,22.755888432966284
1.7103254185582905E12,1.717391304347826,-5.0,7.206521739130435,-7.050826794007635,30.816995002865198,23.766168208857565,499.96054529673404,23.142243998318197
1.7103254185778223E12,1.75,-4.989130434782608,7.195652173913043,-7.062438376240538,30.810864664419256,23.748426288178717,499.9575161883255,22.86803756571264
1.710325418597354E12,1.7391304347826086,-4.989130434782608,7.195652173913043,-7.04952860468967,30.797305798209404,23.747777193519735,499.9523234310536,22.607534242574484
1.7103254186168857E12,1.7391304347826086,-5.021739130434782,7.173913043478261,-7.061356551808901,30.8012003661633,23.739843814354398,499.9454718763199,22.652754503816904
1.7103254186364177E12,1.7608695652173914,-5.076086956521739,7.173913043478261,-7.05500984847663,30.784756634802417,23.729746786325787,499.9455439979487,22.383163855453
1.7103254186559495E12,1.7608695652173914,-5.043478260869565,7.184782608695652,-7.055514699878061,30.799325203815126,23.743810503937066,499.9529725257126,22.010150791424607
1.7103254186754812E12,1.7391304347826086,-5.032608695652174,7.217391304347826,-7.058255321771541,30.787497256695897,23.729241934924357,499.9410724569646,21.5305419600656
1.710325418695013E12,1.7391304347826086,-5.021739130434782,7.184782608695652,-7.051475888666617,30.795286392603682,23.743810503937066,499.93472575363234,21.310354627413112
1.7103254187145447E12,1.7717391304347825,-5.010869565217392,7.163043478260869,-7.0371236845402345,30.79759428472451,23.760470600184277,499.94496702491847,20.850362879081118
1.7103254187340764E12,1.7717391304347825,-5.032608695652174,7.195652173913043,-7.03669095476758,30.869788035129076,23.833097080361497,499.92484509049,20.74391135500805
1.7103254187536084E12,1.75,-5.032608695652174,7.206521739130435,-7.017434479884444,30.87880323872605,23.861368758841607,499.93999063253295,20.280674133381147
1.7103254187731401E12,1.7717391304347825,-5.021739130434782,7.195652173913043,-7.003875613674595,30.849305492556752,23.845429878882157,499.9207341576498,20.03784060929306
1.7103254187926719E12,1.75,-5.032608695652174,7.206521739130435,-7.01664114196791,30.759225578215787,23.742584436247878,499.93587969969275,19.74120435013823
1.7103254188122036E12,1.75,-5.054347826086956,7.184782608695652,-7.052124983325599,30.76600501132071,23.713880027995113,499.9399185109042,19.752888053999907
1.7103254188317354E12,1.7391304347826086,-5.054347826086956,7.195652173913043,-7.0539280240449935,30.76636561946459,23.712437595419598,499.9324899831403,19.91682051620728
1.710325418851267E12,1.75,-5.032608695652174,7.184782608695652,-7.048951631659464,30.767158957381124,23.71820732572166,499.9231862930282,20.56865579708288
1.710325418870799E12,1.7282608695652173,-5.0,7.228260869565217,-6.857540828888515,30.73766121121183,23.880120382323312,499.91820990064264,21.544822042563208
1.7103254188903308E12,1.7282608695652173,-5.021739130434782,7.206521739130435,-6.935215823080043,32.13292624150827,25.197710418428233,499.94085609207826,21.53465289290582
1.7103254189098625E12,1.75,-5.010869565217392,7.260869565217391,-7.365277095470082,31.8614604307962,24.496183335326116,499.93797122692723,22.338664810498337
1.7103254189293943E12,1.826086956521739,-5.0978260869565215,7.021739130434782,-7.107658637482958,31.03537929479829,23.927720657315334,499.9240517525735,23.625098302972116
1.710325418948926E12,1.7391304347826086,-4.967391304347826,7.391304347826087,-7.045273428591899,30.903540957396146,23.858267528804248,499.9096995484471,23.466791327809254
1.710325418968458E12,1.7065217391304348,-5.076086956521739,7.141304347826087,-7.000918626894788,30.862647993880273,23.861729366985486,499.92051779276346,24.34999279379759
1.7103254189879897E12,1.75,-5.032608695652174,7.08695652173913,-6.990460990722298,30.866037710432735,23.875576719710438,499.9319851317388,24.78452560717173
1.7103254190075215E12,1.717391304347826,-5.010869565217392,7.184782608695652,-6.968824502089561,30.864523156228444,23.895698654138883,499.926143279808,25.66794343804639
1.7103254190270532E12,1.7282608695652173,-5.010869565217392,7.195652173913043,-6.973873016103866,30.901449430161648,23.927576414057782,499.9181377790139,25.47364777012441
1.710325419046585E12,1.7826086956521738,-5.054347826086956,7.206521739130435,-6.95050560838051,30.92986535189931,23.9793597435188,499.9334996859431,24.52596956801052
1.7103254190661167E12,1.7826086956521738,-5.076086956521739,7.206521739130435,-6.923243632703261,30.958786125038404,24.035542492335143,499.94237064628254,24.008929611316876
1.7103254190856487E12,1.75,-5.08695652173913,7.217391304347826,-6.905934441797071,31.00992035984044,24.103985918043367,499.9326342263978,23.252445847087603
1.7103254191051804E12,1.7608695652173914,-5.065217391304348,7.173913043478261,-6.852925044646865,31.107356680316528,24.254431635669665,499.90933894030326,23.127170577904057
1.7103254191247122E12,1.7608695652173914,-5.010869565217392,7.184782608695652,-6.838500718891707,31.15387513087692,24.31537441198521,499.92722510423965,24.033955816502075
1.710325419144244E12,1.7391304347826086,-5.0,7.1521739130434785,-6.859488112865462,31.12834407429029,24.268855961424826,499.93400453734455,25.233626989558577
1.7103254191637756E12,1.7282608695652173,-5.010869565217392,7.173913043478261,-6.911343563955255,31.039490227638513,24.128146663683257,499.92974936124676,25.80382058665998
1.7103254191833074E12,1.7282608695652173,-5.021739130434782,7.1521739130434785,-6.963775988075255,30.91342162053843,23.949645632463174,499.8562574215243,25.91589759777756
1.7103254192028394E12,1.75,-5.010869565217392,7.184782608695652,-6.980940935723893,30.878586873839723,23.89764593811583,499.91640685992326,26.004390836285456
1.710325419222371E12,1.75,-5.119565217391304,7.163043478260869,-6.98973977443454,30.865893467175184,23.876153692740644,499.94237064628254,26.048385029838688
1.7103254192419028E12,1.7608695652173914,-5.0978260869565215,7.271739130434782,-6.9911822070100555,30.862431628993946,23.87124942198389,499.9427312544264,26.173155447620804
1.7103254192614346E12,1.75,-5.119565217391304,7.032608695652174,-7.00293803250051,30.883202658081373,23.880264625580864,499.91965233321815,26.06994939684265
1.7103254192809663E12,1.6739130434782608,-5.032608695652174,7.206521739130435,-6.9911822070100555,30.891352402133037,23.900170195122982,499.921960225339,26.222270276817117
1.710325419300498E12,1.7282608695652173,-5.010869565217392,7.173913043478261,-6.995148896592724,30.89935790292715,23.904209006334426,499.901694047653,26.66307767189475
1.71032541932003E12,1.7826086956521738,-5.021739130434782,7.1521739130434785,-6.98202276015553,30.89164088864814,23.90961812849261,499.9154692787492,27.09746624201134
1.7103254193395618E12,1.7608695652173914,-5.065217391304348,7.130434782608695,-6.989234923033109,30.887962685580575,23.898727762547466,499.94381307885806,27.14045073276171
1.7103254193590935E12,1.75,-5.065217391304348,7.163043478260869,-6.98425853064758,30.874764427514606,23.890505896867026,499.9167674680671,27.27704909766306
1.7103254193786252E12,1.7391304347826086,-5.08695652173913,7.184782608695652,-6.977046367770001,30.863008602024152,23.88596223425415,499.93227361825393,27.177593371581242
1.710325419398157E12,1.717391304347826,-5.065217391304348,7.141304347826087,-6.98288821970084,30.851685506306353,23.868797286605513,499.92534994189145,27.057799346184655
1.7103254194176887E12,1.7065217391304348,-5.043478260869565,7.163043478260869,-6.984619138791459,30.839352707785693,23.854733568994234,499.9091225754169,27.191584967563745
1.7103254194372207E12,1.7065217391304348,-5.054347826086956,7.163043478260869,-6.994788288448845,30.84353576225469,23.848747473805844,499.9239796309447,27.028013113500254
1.7103254194567524E12,1.75,-5.032608695652174,7.130434782608695,-6.992624639585571,30.836612085892213,23.84398744630664,499.9227535632555,26.958848471504268
1.7103254194762842E12,1.7826086956521738,-5.054347826086956,7.0978260869565215,-6.988657950002903,30.82997689604484,23.841318946041937,499.9326342263978,26.748325437107738
1.710325419495816E12,1.75,-5.065217391304348,7.108695652173913,-6.99745678871355,30.828173855325446,23.830717066611896,499.93638455109414,26.714067663439234
1.7103254195153477E12,1.7282608695652173,-5.065217391304348,7.1521739130434785,-7.003659248788268,30.844617586686326,23.84095833789806,499.9438852004868,26.52554172581932
1.7103254195348794E12,1.7282608695652173,-5.076086956521739,7.119565217391304,-6.9883694634878,30.824279287371553,23.835909823883753,499.9383318350711,26.413536836330515
1.7103254195544114E12,1.717391304347826,-5.043478260869565,7.0978260869565215,-6.9932737342445535,30.840146045702227,23.846872311457673,499.93912517298764,26.19803740954845
1.710325419573943E12,1.7391304347826086,-5.054347826086956,7.141304347826087,-6.968103285801803,30.868417724182336,23.900314438380533,499.940928213707,26.075647005515936
1.7103254195934749E12,1.7282608695652173,-5.065217391304348,7.141304347826087,-6.952020162584802,30.903180349252267,23.951160186667465,499.93725001063945,25.804974532720394
1.7103254196130066E12,1.717391304347826,-5.054347826086956,7.141304347826087,-6.958511109174623,30.927557459778484,23.96904635060386,499.91683958969594,25.44624155118961
1.7103254196325383E12,1.717391304347826,-5.054347826086956,7.065217391304348,-6.97603666496714,30.852695209109214,23.876658544142074,499.938043348556,24.648071485527932
1.7103254196520703E12,1.7282608695652173,-5.065217391304348,7.076086956521739,-7.017362358255668,30.806897974836588,23.78953561658092,499.9522513094248,24.160601396632362
1.710325419671602E12,1.7065217391304348,-5.032608695652174,7.0978260869565215,-7.012674452385242,30.801921582451058,23.789247130065817,499.9523955526824,24.072036036495692
1.7103254196911338E12,1.7065217391304348,-5.065217391304348,7.0978260869565215,-7.010294438635641,30.812956191653754,23.802661753018114,499.9234747795433,23.75888392435121
1.7103254197106655E12,1.7391304347826086,-5.043478260869565,7.119565217391304,-6.999908924091927,30.726049628978924,23.726140704886998,499.92578267166414,23.909834493378938
1.7103254197301973E12,1.717391304347826,-5.043478260869565,7.173913043478261,-6.770345779698585,31.381779477808415,24.61143369810983,499.93638455109414,22.767427893570414
1.710325419749729E12,1.7391304347826086,-5.065217391304348,7.173913043478261,-7.1941324703851315,32.36515788616632,25.17102541578119,499.95549678271976,22.00185680411539
1.710325419769261E12,1.7826086956521738,-5.065217391304348,7.195652173913043,-7.18850698334062,31.04641390400099,23.85790692066037,499.95967983718873,22.21158650059539
1.7103254197887927E12,1.7608695652173914,-5.08695652173913,6.956521739130435,-7.0326521435561355,30.961238260416778,23.928586116860643,499.9484288630997,22.575007387996603
1.7103254198083245E12,1.608695652173913,-4.967391304347826,7.4021739130434785,-7.002793789242959,30.902531254593285,23.899737465350327,499.96198772930956,21.720943060033687
1.7103254198278562E12,1.8043478260869565,-5.076086956521739,6.891304347826087,-6.979931232921032,30.88890026675466,23.90896903383363,499.957660431583,22.210648919421306
1.710325419847388E12,1.6956521739130435,-5.076086956521739,7.163043478260869,-6.977623340800207,30.905993092774523,23.928369751974316,499.9391972946164,21.644782620046453
1.7103254198669197E12,1.75,-5.054347826086956,7.141304347826087,-6.949712270463976,30.923951378339694,23.974239107875718,499.9563622422651,20.925802102780594
1.7103254198864517E12,1.7282608695652173,-5.076086956521739,7.163043478260869,-6.947043770199272,30.9561176247737,24.009073854574428,499.945760362835,20.052769786449648
1.7103254199059834E12,1.75,-5.065217391304348,7.173913043478261,-6.9332685391030955,30.99982333181183,24.066554792708732,499.93674515923806,18.953419799020267
1.7103254199255151E12,1.7826086956521738,-5.076086956521739,7.141304347826087,-6.896414386798667,31.038264159949325,24.141849773150657,499.94684218726667,18.42823009827496
1.7103254199450469E12,1.7391304347826086,-5.076086956521739,7.184782608695652,-6.852925044646865,31.14716781940077,24.294242774753904,499.9205899143923,17.518632116154684
1.7103254199645786E12,1.684782608695652,-5.043478260869565,7.163043478260869,-6.818523027720813,31.19224383738564,24.373720809664825,499.91763292761243,17.710836256842168
1.7103254199841104E12,1.7065217391304348,-5.0,7.130434782608695,-6.817224838402849,31.22563615150883,24.40841131310598,499.9107813728788,17.769759627551988
1.7103254200036423E12,1.7065217391304348,-5.021739130434782,7.130434782608695,-6.876580938885325,31.149115103377717,24.27253416449239,499.9220323469678,18.013458611185385
1.710325420023174E12,1.7282608695652173,-5.032608695652174,7.1521739130434785,-6.932186714671459,31.05427516153755,24.12208844686609,499.91438745431753,18.01115071906456
1.7103254200427058E12,1.7717391304347825,-5.032608695652174,7.141304347826087,-6.968824502089561,30.953232759622665,23.984408257533104,499.89924191227465,18.39447717600789
1.7103254200622375E12,1.7717391304347825,-5.054347826086956,7.195652173913043,-6.97517120542183,30.92250894576418,23.94733774034235,499.8966455336387,18.715274180802606
1.7103254200817693E12,1.7826086956521738,-5.043478260869565,7.25,-6.996374964281912,30.921427121332542,23.92505215705063,499.933211199428,19.20916309465922
1.710325420101301E12,1.7826086956521738,-5.065217391304348,7.206521739130435,-6.990460990722298,30.92301379716561,23.93255280644331,499.91943596833187,19.521738233773497
1.710325420120833E12,1.6739130434782608,-5.043478260869565,7.065217391304348,-6.98750400394249,30.932389608906462,23.94488560496397,499.9245566039749,18.449001127362386
1.7103254201403647E12,1.7065217391304348,-5.032608695652174,7.184782608695652,-6.98973977443454,30.946525448146517,23.956785673711977,499.92325841465697,18.61718876566753
1.7103254201598965E12,1.7717391304347825,-5.0,7.195652173913043,-6.986710666025957,30.9471745428055,23.960463876779542,499.9314802803374,19.03174388787078
1.7103254201794282E12,1.7608695652173914,-5.054347826086956,7.173913043478261,-6.970843907695283,30.935635082201372,23.96479117450609,499.9136662380298,19.558880872593033
1.71032542019896E12,1.7608695652173914,-5.054347826086956,7.173913043478261,-6.981085178981445,30.94594847511631,23.964863296134865,499.91914748181676,19.37951438182764
1.7103254202184917E12,1.75,-5.076086956521739,7.163043478260869,-6.978056070572862,30.925177446028883,23.94712137545602,499.93912517298764,19.832438210539607
1.7103254202380237E12,1.7608695652173914,-5.065217391304348,7.173913043478261,-6.97243058352835,30.912916769137,23.94048618560865,499.90991591333346,19.869075997957708
1.7103254202575554E12,1.717391304347826,-5.043478260869565,7.1521739130434785,-6.971204515839162,30.89798759198041,23.92678307614125,499.9124401703406,19.923816314198532
1.7103254202770872E12,1.717391304347826,-5.021739130434782,7.173913043478261,-6.968175407430579,30.883995995997907,23.91582058856733,499.91741656272615,19.796305274522936
1.710325420296619E12,1.7391304347826086,-5.021739130434782,7.173913043478261,-6.969617840006094,30.89149664539059,23.921878805384495,499.92152749556635,19.805031991604807
1.7103254203161506E12,1.7717391304347825,-5.021739130434782,7.195652173913043,-6.961251731068103,30.87382684634052,23.912575115272418,499.93486999688986,19.802147126453775
1.7103254203356824E12,1.7391304347826086,-5.043478260869565,7.173913043478261,-6.958078379401968,30.87346623819664,23.915387858794674,499.92549418514903,19.809215046073803
1.7103254203552144E12,1.7391304347826086,-5.054347826086956,7.195652173913043,-6.96420871784791,30.868057116038457,23.903848398190547,499.89058731682155,20.057313449062523
1.710325420374746E12,1.7282608695652173,-5.054347826086956,7.173913043478261,-6.9579341361444165,30.86113343967598,23.903199303531565,499.90032373670624,20.101163399358203
1.7103254203942778E12,1.75,-5.032608695652174,7.184782608695652,-6.972502705157126,30.86885045395499,23.896347748797865,499.9231862930282,20.822091200601008
1.7103254204138096E12,1.7391304347826086,-5.032608695652174,7.184782608695652,-6.954039568190524,30.868489845811112,23.91445027762059,499.91763292761243,20.90755533070032
1.7103254204333413E12,1.7391304347826086,-5.043478260869565,7.184782608695652,-6.951010459781941,30.90895007955433,23.95793961977239,499.9151086706053,21.042134289995946
1.7103254204528733E12,1.7282608695652173,-5.054347826086956,7.184782608695652,-6.935792796110249,30.944073312768143,24.008280516657894,499.92109476579367,21.049490696131077
1.710325420472405E12,1.7391304347826086,-5.032608695652174,7.163043478260869,-6.927354565543481,30.950059407956534,24.022704842413052,499.9110698593939,21.20123460307534
1.7103254204919368E12,1.7391304347826086,-5.032608695652174,7.195652173913043,-6.93045579558084,30.880822644331772,23.95036684875093,499.9015498043955,21.34930030695204
1.7103254205114685E12,1.7608695652173914,-5.032608695652174,7.1521739130434785,-6.951948040956026,30.83632359937711,23.884375558421084,499.90248738556954,21.83741949050659
1.7103254205310002E12,1.7282608695652173,-5.054347826086956,7.130434782608695,-6.944735878078447,30.82932780138586,23.88459192330741,499.8928952089424,22.1278532895867
1.710325420550532E12,1.75,-5.032608695652174,7.141304347826087,-6.954688662849506,30.83942482941447,23.884736166564963,499.8895054923899,22.307291901980868
1.710325420570064E12,1.7608695652173914,-5.043478260869565,7.173913043478261,-6.890428291610276,30.704341018717415,23.813912727107137,499.8963570471236,22.185262106092228
1.7103254205895957E12,1.75,-5.021739130434782,7.184782608695652,-6.732265559704967,31.38783769462558,24.655572134920615,499.90039585833506,21.911488403259327
1.7103254206091274E12,1.7826086956521738,-5.0,7.217391304347826,-7.083497891843068,32.544812863446815,25.46131497160375,499.90659831840975,21.800204730058283
1.7103254206286592E12,1.8152173913043477,-5.043478260869565,7.1521739130434785,-7.116313232936053,31.146735089628116,24.03042185669206,499.90630983189465,22.52365678830824
1.710325420648191E12,1.7282608695652173,-5.021739130434782,7.0978260869565215,-6.970988150952834,31.016699792945364,24.04571164199253,499.9183541439002,22.560943670385324
1.7103254206677227E12,1.6630434782608696,-5.021739130434782,7.413043478260869,-6.913939942591184,30.923662891824595,24.00972294923341,499.8996746420473,21.815206028843647
1.7103254206872546E12,1.8152173913043477,-5.130434782608695,6.934782608695652,-6.906006563425847,30.92135499970377,24.01534843627792,499.90991591333346,22.4427363208218
1.7103254207067864E12,1.7282608695652173,-5.032608695652174,7.25,-6.895909535397236,30.937149636405668,24.04124010100843,499.89852069598686,22.16362561745949
1.710325420726318E12,1.7282608695652173,-4.989130434782608,7.0978260869565215,-6.89259194047355,30.95510792197084,24.062515981497288,499.8890727626172,22.240290908848156
1.7103254207458499E12,1.75,-5.010869565217392,7.206521739130435,-6.876220330741446,30.98453354651136,24.108313215769915,499.86729203072696,21.422215273644362
1.7103254207653816E12,1.75,-5.032608695652174,7.173913043478261,-6.8523480716166585,31.018142225520876,24.16579415390422,499.86397443580324,20.32805804348684
1.7103254207849133E12,1.7282608695652173,-5.065217391304348,7.195652173913043,-6.830927947870249,31.066463716800655,24.235535768930408,499.8731338826578,19.888476716098396
1.7103254208044453E12,1.7282608695652173,-5.076086956521739,7.184782608695652,-6.788448308521308,31.15668787439917,24.368239565877865,499.87183569333985,19.16531314436354
1.710325420823977E12,1.7826086956521738,-5.054347826086956,7.141304347826087,-6.75895056235201,31.230973152038235,24.472022589686226,499.8763793559527,19.681487641511875
1.7103254208435088E12,1.7391304347826086,-5.0,7.173913043478261,-6.7649366575404,31.259461195404672,24.494524537864272,499.8721963014837,20.466603692365133
1.7103254208630405E12,1.7065217391304348,-5.010869565217392,7.173913043478261,-6.817224838402849,31.186834715227455,24.369609876824605,499.8691671930751,20.636378006503346
1.7103254208825723E12,1.7391304347826086,-5.021739130434782,7.173913043478261,-6.852852923018089,31.01273310336269,24.159880180344604,499.86282048974283,20.533099834096415
1.710325420902104E12,1.7391304347826086,-5.021739130434782,7.163043478260869,-6.898145305889286,30.964123125567813,24.065977819678526,499.86231563834144,20.683545551722712
1.710325420921636E12,1.7608695652173914,-5.032608695652174,7.184782608695652,-6.902472603615833,30.93981813667037,24.037345533054538,499.86101744902345,20.758335680763206
1.7103254209411677E12,1.7608695652173914,-5.08695652173913,7.119565217391304,-6.915598740053027,30.927268973263384,24.011670233210356,499.8602241111069,21.14966763850065
1.7103254209606995E12,1.7717391304347825,-5.043478260869565,7.239130434782608,-6.918699970090386,30.93693327151934,24.018233301428953,499.87270115288516,20.943904631603317
1.7103254209802312E12,1.75,-5.054347826086956,7.043478260869565,-6.905934441797071,30.935851447087703,24.02991700529063,499.84738646118484,21.302204883361448
1.710325420999763E12,1.6956521739130435,-5.0,7.293478260869565,-6.907593239258914,30.946958177919175,24.03936493866026,499.8608732057659,22.342487256823453
1.7103254210192947E12,1.7826086956521738,-5.0,7.141304347826087,-6.908675063690551,30.953304881251444,24.044629817560892,499.85690651618324,23.624232843426807
1.7103254210388267E12,1.7608695652173914,-5.054347826086956,7.228260869565217,-6.904275644335228,30.95236730007736,24.04809165574213,499.8584931920163,23.607789112065927
1.7103254210583584E12,1.75,-5.076086956521739,7.141304347826087,-6.892952548617429,30.943568461366713,24.050615912749283,499.8606568408796,23.542519038023837
1.7103254210778901E12,1.7282608695652173,-5.054347826086956,7.163043478260869,-6.887543426459245,30.932029000762586,24.04448557430334,499.86909507144634,23.682290754591317
1.7103254210974219E12,1.717391304347826,-5.054347826086956,7.173913043478261,-6.889779196951294,30.928927770725227,24.039148573773932,499.8491895019042,23.558530039612062
1.7103254211169536E12,1.7391304347826086,-5.021739130434782,7.173913043478261,-6.895981657026012,30.927773824664815,24.0317921676388,499.8650562602349,23.73191043518906
1.7103254211364854E12,1.717391304347826,-5.010869565217392,7.141304347826087,-6.890572534867828,30.90967129584209,24.019098760974263,499.8865485056101,23.41017584922026
1.7103254211560173E12,1.7282608695652173,-5.054347826086956,7.163043478260869,-6.897856819374183,30.899285781298374,24.00142896192419,499.86657081443917,23.40656976778147
1.710325421175549E12,1.7391304347826086,-5.043478260869565,7.163043478260869,-6.899155008692147,30.892073618420795,23.992918609728648,499.86375807091696,23.301127946511265
1.7103254211950808E12,1.7391304347826086,-5.065217391304348,7.217391304347826,-6.8934574000188595,30.87743292777931,23.98397552776045,499.90659831840975,23.36098889839517
1.7103254212146125E12,1.7282608695652173,-5.065217391304348,7.184782608695652,-6.895548927253357,30.87591837357502,23.98036944632166,499.8886400328446,22.955953831190328
1.7103254212341443E12,1.75,-5.032608695652174,7.217391304347826,-6.902328360358282,30.87483654914338,23.9725081887851,499.8961406822373,22.766562434025104
1.7103254212536763E12,1.7608695652173914,-5.021739130434782,7.184782608695652,-6.876364573998997,30.861566169448636,23.985201595449638,499.8781102750433,22.846040468936025
1.710325421273208E12,1.75,-5.010869565217392,7.163043478260869,-6.892303453958447,30.86596558880396,23.97366213484551,499.87594662618005,22.990427969745156
1.7103254212927397E12,1.7608695652173914,-5.021739130434782,7.184782608695652,-6.872614249302656,30.90166579504798,24.02905154574532,499.8944818847754,23.10978926536909
1.7103254213122715E12,1.7608695652173914,-5.054347826086956,7.195652173913043,-6.871099695098364,30.946669691404068,24.075569996305706,499.886909113754,23.137628214076546
1.7103254213318032E12,1.7282608695652173,-5.065217391304348,7.173913043478261,-6.849463206465627,30.964844341855567,24.115381135389942,499.87890361295985,22.87762974233982
1.710325421351335E12,1.75,-5.0,7.173913043478261,-6.855882031426672,30.932822338679117,24.076940307252446,499.8778217885282,22.7323046603566
1.710325421370867E12,1.7608695652173914,-5.021739130434782,7.184782608695652,-6.856747490971982,30.849377614185528,23.992630123213544,499.8954915875783,22.8482041177993
1.7103254213903987E12,1.7391304347826086,-5.043478260869565,7.163043478260869,-6.872614249302656,30.829183558128307,23.95656930882565,499.88106726182315,22.766201825881225
1.7103254214099304E12,1.7391304347826086,-5.032608695652174,7.184782608695652,-6.8852355343384195,30.84505031645898,23.95981478212056,499.8654889900076,23.024108770383453
1.7103254214294622E12,1.7282608695652173,-5.021739130434782,7.184782608695652,-6.870739086954485,30.792040919308775,23.92130183235429,499.86245988159897,23.02107966197487
1.710325421448994E12,1.75,-5.032608695652174,7.184782608695652,-6.739477722582546,30.73809394098448,23.998616218401935,499.8733502475441,23.246099143755334
1.7103254214685256E12,1.75,-5.032608695652174,7.195652173913043,-6.908098090660345,32.5591650675732,25.651066976912855,499.8855388028072,22.58690745674461
1.7103254214880576E12,1.7608695652173914,-5.043478260869565,7.239130434782608,-7.218076851138694,31.537850682479228,24.319773831340534,499.88813518144315,23.305383122609037
1.7103254215075894E12,1.8152173913043477,-5.076086956521739,6.956521739130435,-6.9733681647024355,31.100793612097934,24.1274254473955,499.88005755902026,24.126992717622844
1.710325421527121E12,1.717391304347826,-4.956521739130435,7.3478260869565215,-6.857757193774843,30.948400610494687,24.090643416719846,499.8850339514058,23.04949558371253
1.7103254215466528E12,1.717391304347826,-5.0978260869565215,7.108695652173913,-6.843621354534788,30.928567162581345,24.08494580804656,499.89383279011645,23.465709503377617
1.7103254215661846E12,1.7391304347826086,-5.021739130434782,7.108695652173913,-6.823138811962464,30.9221483376203,24.099009525657838,499.8967176552675,23.2271311553873
1.7103254215857163E12,1.717391304347826,-5.043478260869565,7.1521739130434785,-6.819893338667553,30.947390907691826,24.127497569024275,499.8870533570115,24.204451346928042
1.7103254216052483E12,1.7608695652173914,-4.989130434782608,7.184782608695652,-6.784193132423536,30.95380973265287,24.169616600229336,499.87327812591536,23.28872302636183
1.71032542162478E12,1.75,-5.065217391304348,7.228260869565217,-6.794650768596026,31.00213122393265,24.207480455336626,499.88871215447335,22.923643341498774
1.7103254216443118E12,1.7934782608695652,-5.054347826086956,7.130434782608695,-6.755055994398117,31.045332079569352,24.290276085171236,499.8842406134893,21.66158695955121
1.7103254216638435E12,1.7608695652173914,-5.043478260869565,7.163043478260869,-6.720149126070634,31.099639666037522,24.379490539966888,499.89022670867763,21.1063225396064
1.7103254216833752E12,1.7608695652173914,-5.043478260869565,7.173913043478261,-6.697647177892588,31.170895835268002,24.473248657375414,499.8934721819726,20.856781704042163
1.710325421702907E12,1.7282608695652173,-5.032608695652174,7.141304347826087,-6.682790122364774,31.25953331703345,24.576743194668676,499.86318109788675,21.901247131973165
1.710325421722439E12,1.7391304347826086,-5.010869565217392,7.184782608695652,-6.695483529029314,31.24482050476319,24.549336975733876,499.86231563834144,22.190959714765516
1.7103254217419707E12,1.75,-5.054347826086956,7.1521739130434785,-6.772293063675531,31.106491220771222,24.334198157095692,499.85560832686525,22.115592612694815
1.7103254217615024E12,1.7608695652173914,-5.021739130434782,7.195652173913043,-6.8067672022303585,31.015040995483517,24.20827379325316,499.8838078837166,21.774457308585326
1.7103254217810342E12,1.7391304347826086,-5.021739130434782,7.195652173913043,-6.825374582454513,30.94832848886591,24.1229539064114,499.88900064098846,21.848598342966838
1.710325421800566E12,1.7717391304347825,-5.032608695652174,7.184782608695652,-6.839077691921913,30.932173244020134,24.093095552098223,499.87039326076433,22.01541567032524
1.7103254218200977E12,1.7608695652173914,-5.043478260869565,7.25,-6.850256544382161,30.931163541217273,24.080906996835115,499.8848175865195,22.06135714785542
1.7103254218396296E12,1.7391304347826086,-5.0978260869565215,7.141304347826087,-6.831288556014128,30.913133134023326,24.0818445780092,499.8639023141745,21.90391563223787
1.7103254218591614E12,1.717391304347826,-5.021739130434782,7.195652173913043,-6.832370380445765,30.92777382466481,24.09540344421905,499.85647378641056,20.804349279922164
1.710325421878693E12,1.7391304347826086,-5.0,7.217391304347826,-6.8351831239680205,30.939529650155265,24.104346526187246,499.86116169228103,22.7752170294782
1.7103254218982249E12,1.7826086956521738,-5.032608695652174,7.184782608695652,-6.826167920371047,30.94356846136671,24.117400540995664,499.8587816785314,23.27999630927996
1.7103254219177566E12,1.75,-5.054347826086956,7.1521739130434785,-6.826384285257374,30.939313285268938,24.112929000011565,499.8721963014837,24.020757558436106
1.7103254219372886E12,1.7282608695652173,-5.076086956521739,7.173913043478261,-6.821407892871845,30.940683596215678,24.119275703343835,499.870176895878,24.163630505040945
1.7103254219568203E12,1.7391304347826086,-5.043478260869565,7.173913043478261,-6.8201097035538805,30.920345296900905,24.100235593347026,499.87349449080165,25.261249573379708
1.710325421976352E12,1.75,-5.043478260869565,7.184782608695652,-6.829918245067388,30.910104025614743,24.080185780547357,499.86613808466655,25.597480606732443
1.7103254219958838E12,1.75,-5.043478260869565,7.195652173913043,-6.818883635864692,30.903036105994715,24.084152470130025,499.88121150508067,26.03071523078862
1.7103254220154155E12,1.7391304347826086,-5.043478260869565,7.173913043478261,-6.832658866960868,30.893588172625087,24.06092930566422,499.8680853686435,26.86033032659654
1.7103254220349473E12,1.7282608695652173,-5.010869565217392,7.184782608695652,-6.829269150408406,30.884212360884234,24.05494321047583,499.88049028879294,27.144994395374585
1.7103254220544792E12,1.75,-5.021739130434782,7.195652173913043,-6.825446704083289,30.879957184786463,24.054510480703176,499.8676526388708,27.351478618559675
1.710325422074011E12,1.717391304347826,-5.032608695652174,7.184782608695652,-6.8173690816604005,30.87022076490173,24.052851683241332,499.8669314225831,27.193099521768037
1.7103254220935427E12,1.7282608695652173,-5.065217391304348,7.195652173913043,-6.819460608894898,30.875341400544812,24.055880791649916,499.8708981121657,26.934399239349275
1.7103254221130745E12,1.75,-5.054347826086956,7.217391304347826,-6.829990366696164,30.893227564481208,24.063237197785046,499.85690651618324,27.055563575692606
1.7103254221326062E12,1.7391304347826086,-5.043478260869565,7.184782608695652,-6.816792108630194,30.876783833120328,24.059991724490136,499.84709797466974,27.443938546650237
1.710325422152138E12,1.7391304347826086,-5.032608695652174,7.1521739130434785,-6.82782671783289,30.882120833649736,24.054294115816848,499.8584931920163,27.52565235205321
1.71032542217167E12,1.7065217391304348,-5.032608695652174,7.173913043478261,-6.8022956612462595,30.898780929896944,24.096485268650685,499.85957501644793,27.533585731218547
1.7103254221912017E12,1.75,-5.043478260869565,7.141304347826087,-6.788087700377429,30.949266070039997,24.16117836966257,499.8602962327357,27.391506122530238
1.7103254222107334E12,1.7391304347826086,-5.021739130434782,7.163043478260869,-6.781164024014953,30.96289705787862,24.18173303386367,499.86181078694,27.295584356258438
1.7103254222302651E12,1.7391304347826086,-5.043478260869565,7.184782608695652,-6.792487119732752,30.93325506845177,24.14076794871902,499.87738905875557,27.00378024623159
1.7103254222497969E12,1.75,-5.032608695652174,7.195652173913043,-6.808209634805874,30.852046114450232,24.04383647964436,499.8660659630378,27.020296099221245
1.7103254222693286E12,1.7608695652173914,-5.108695652173913,7.119565217391304,-6.828764299006975,30.855075222858815,24.02631092385184,499.8786872480735,27.12984885333167
1.7103254222888606E12,1.7282608695652173,-5.08695652173913,7.108695652173913,-6.8170084735165215,30.86596558880396,24.04895711528744,499.8755860180362,27.126098528635328
1.7103254223083923E12,1.717391304347826,-5.054347826086956,7.141304347826087,-6.831649164158007,30.84815154649634,24.016502382338334,499.88077877530804,27.174275776657556
1.710325422327924E12,1.7282608695652173,-5.043478260869565,7.141304347826087,-6.593215059425242,30.96051704412902,24.36730198470378,499.87327812591536,26.900502073824654
1.7103254223474558E12,1.7391304347826086,-5.043478260869565,7.163043478260869,-6.7796494698106615,32.40720479574261,25.627555325931947,499.8745763152333,26.618939235083968
1.7103254223669875E12,1.75,-5.032608695652174,7.239130434782608,-7.1166738410799315,31.238257436544593,24.12158359546466,499.883375153944,26.608481598911478
1.7103254223865193E12,1.7717391304347825,-5.119565217391304,6.989130434782608,-6.876580938885325,31.0681225142625,24.191541575377176,499.8915248979956,27.036234979180694
1.7103254224060513E12,1.7391304347826086,-4.967391304347826,7.271739130434782,-6.824148514765325,30.974003788710093,24.14985527394477,499.88243757276985,26.671227415946415
1.710325422425583E12,1.7391304347826086,-5.163043478260869,6.967391304347826,-6.803233242420345,30.96823405840803,24.165000815987685,499.8943376415179,27.012795449828563
1.7103254224451147E12,1.7065217391304348,-5.032608695652174,7.076086956521739,-6.791549538558667,30.965060706741895,24.17351116818323,499.8832309106864,26.66156311769046
1.7103254224646465E12,1.717391304347826,-5.076086956521739,7.065217391304348,-6.786428902915586,30.985831735829322,24.199402832913737,499.8978716013279,26.786261413843803
1.7103254224841782E12,1.7282608695652173,-5.065217391304348,7.119565217391304,-6.748637169437072,31.000472426470807,24.251835257033736,499.87565813966495,26.331534544412442
1.71032542250371E12,1.7391304347826086,-5.076086956521739,7.141304347826087,-6.759960265154871,31.048216944720384,24.288256679565514,499.877244815498,25.625896528470104
1.710325422523242E12,1.7826086956521738,-5.0978260869565215,7.108695652173913,-6.729669181069038,31.09437478713689,24.36470560606785,499.8689508281888,24.818567015953903
1.7103254225427737E12,1.75,-5.108695652173913,7.08695652173913,-6.6860355956596855,31.17947830909232,24.493442713432636,499.8698884093629,23.288506661475502
1.7103254225623054E12,1.7608695652173914,-5.08695652173913,7.08695652173913,-6.663822133996741,31.265807898736945,24.601985764740203,499.8807066536792,23.048918610682325
1.7103254225818372E12,1.717391304347826,-5.043478260869565,7.065217391304348,-6.637497739493578,31.29739717214074,24.659899432647162,499.88388000534536,23.010694147431153
1.710325422601369E12,1.75,-5.043478260869565,7.0978260869565215,-6.694834434370332,31.291699563467454,24.59686512909712,499.8741435854607,23.539994781016684
1.7103254226209006E12,1.7391304347826086,-5.076086956521739,7.119565217391304,-6.745824425914815,31.181786201213146,24.43596177529833,499.8870533570115,23.536244456320343
1.7103254226404326E12,1.8152173913043477,-5.054347826086956,6.923913043478261,-6.810878135070579,31.000544548099583,24.189666413029006,499.90450679117527,22.85007928014747
1.7103254226599644E12,1.7608695652173914,-5.054347826086956,7.1521739130434785,-6.817946054690607,30.965565558143325,24.14761950345272,499.88099514019433,22.29387727902857
1.710325422679496E12,1.717391304347826,-5.108695652173913,7.054347826086956,-6.843404989648461,30.961670990189432,24.118266000540974,499.8822933295123,22.607029391173054
1.7103254226990278E12,1.717391304347826,-5.065217391304348,7.1521739130434785,-6.843260746390909,30.96513282837067,24.121872081979763,499.88243757276985,22.63602228594092
1.7103254227185596E12,1.7282608695652173,-5.119565217391304,6.989130434782608,-6.854006869078502,30.976672288974797,24.122665419896297,499.8778217885282,21.83417401721168
1.7103254227380916E12,1.7282608695652173,-5.043478260869565,7.065217391304348,-6.846578341314595,30.97508561314173,24.128507271827136,499.8882073030719,20.56627578333328
1.7103254227576233E12,1.684782608695652,-5.032608695652174,7.163043478260869,-6.834750394195366,30.969820734241097,24.135070340045733,499.88928912750356,20.842357378287005
1.710325422777155E12,1.7934782608695652,-5.043478260869565,7.108695652173913,-6.835399488854348,30.98208141113298,24.146681922278635,499.89707826341134,21.38507263482483
1.7103254227966868E12,1.75,-5.08695652173913,7.141304347826087,-6.817946054690607,30.97422015359642,24.156274098905815,499.86556111163634,21.064203508401338
1.7103254228162185E12,1.7717391304347825,-5.0978260869565215,7.108695652173913,-6.8324425020745405,30.982658384163187,24.15021588208865,499.8792642211037,21.183492682396494
1.7103254228357502E12,1.75,-5.08695652173913,7.141304347826087,-6.832947353475971,30.96224796321964,24.12930060974367,499.87450419360454,20.97794604038549
1.7103254228552822E12,1.7391304347826086,-5.032608695652174,7.130434782608695,-6.8173690816604005,30.950275772842858,24.13290669118246,499.85705075944077,21.36141674058637
1.710325422874814E12,1.7717391304347825,-5.010869565217392,7.108695652173913,-6.818162419576934,30.935707203830148,24.117544784253216,499.8584931920163,21.834823111870662
1.7103254228943457E12,1.7826086956521738,-5.043478260869565,7.119565217391304,-6.825518825712065,30.946092718373862,24.1205738926618,499.84637675838195,22.311619199707415
1.7103254229138774E12,1.7391304347826086,-5.054347826086956,7.141304347826087,-6.832730988589644,30.932966581936668,24.100235593347026,499.85503135383505,22.599312376894044
1.7103254229334092E12,1.7065217391304348,-5.0978260869565215,7.163043478260869,-6.8242206363941005,30.928278676066242,24.104058039672143,499.8545986240624,22.67201097870004
1.710325422952941E12,1.75,-5.108695652173913,7.217391304347826,-6.837635259346397,30.92726897326338,24.089633713916985,499.86188290856876,22.511900962817784
1.710325422972473E12,1.7065217391304348,-5.0978260869565215,7.184782608695652,-6.820181825182656,30.911618579819034,24.09143675463638,499.85957501644793,22.23899271953019
1.7103254229920046E12,1.717391304347826,-5.076086956521739,7.130434782608695,-6.798545336549918,30.95467519219818,24.156129855648263,499.8589980434177,22.068713553990552
1.7103254230115364E12,1.75,-5.021739130434782,7.119565217391304,-6.807272053631789,31.001049399501014,24.193777345869226,499.8587095569026,21.999188303850687
1.710325423031068E12,1.75,-5.0,7.141304347826087,-6.79868957980747,31.021964671845993,24.223275092038524,499.8625320032277,22.11927081576238
1.7103254230505999E12,1.717391304347826,-5.021739130434782,7.130434782608695,-6.788448308521308,30.96873890980946,24.180290601288153,499.8561131782667,21.780659768660044
1.7103254230701316E12,1.7065217391304348,-5.054347826086956,7.184782608695652,-6.798617458178694,30.87108622444704,24.072468766268347,499.8411840011101,21.665986378906535
1.7103254230896636E12,1.7282608695652173,-5.054347826086956,7.130434782608695,-6.816287257228764,30.876351103347673,24.06006384611891,499.8543822591761,20.970517512621583
1.7103254231091953E12,1.7391304347826086,-5.065217391304348,7.1521739130434785,-6.8105175269267,30.871663197477247,24.061145670550548,499.8474585828136,20.842141013400678
1.710325423128727E12,1.7282608695652173,-5.054347826086956,7.184782608695652,-6.791621660187443,30.788434837869982,23.99681317768254,499.85005496144953,20.432706526840512
1.7103254231482588E12,1.7391304347826086,-5.032608695652174,7.173913043478261,-6.602807236052422,30.90519975485799,24.30239251880557,499.82993302702107,20.673232158807775
1.7103254231677905E12,1.7282608695652173,-5.032608695652174,7.195652173913043,-6.986494301139629,32.53868252500088,25.552188223861247,499.85777197572855,20.462132151381034
1.7103254231873223E12,1.7826086956521738,-5.032608695652174,7.25,-7.102465880211101,31.290185009263162,24.18771912905206,499.86282048974283,21.264196784996603
1.7103254232068542E12,1.8043478260869565,-5.108695652173913,6.967391304347826,-6.8547280853662595,31.09826935509078,24.24354126972452,499.8748648017484,21.94617890670048
1.710325423226386E12,1.717391304347826,-4.956521739130435,7.33695652173913,-6.783255551249451,30.970397707271303,24.187142156021853,499.8385155008454,21.168563505239906
1.7103254232459177E12,1.7934782608695652,-5.130434782608695,7.032608695652174,-6.771211239243894,30.97184013984682,24.200628900602926,499.84140036599644,22.141989128826754
1.7103254232654495E12,1.7282608695652173,-5.054347826086956,7.108695652173913,-6.7464013989450216,30.973066207536007,24.226664808590986,499.86938355796144,22.302243387966563
1.7103254232849812E12,1.7065217391304348,-5.032608695652174,7.1521739130434785,-6.759671778639768,30.99376511499466,24.234093336354892,499.8758745045513,22.969368454142625
1.710325423304513E12,1.75,-5.010869565217392,7.206521739130435,-6.724692788683509,31.020594360899256,24.295901572215747,499.83627973035334,22.313205875540483
1.710325423324045E12,1.7391304347826086,-5.076086956521739,7.173913043478261,-6.719716396297979,31.052688485704483,24.332972089406503,499.83361123008865,22.051043754940483
1.7103254233435767E12,1.7608695652173914,-5.065217391304348,7.163043478260869,-6.6915168394466455,31.089614759637687,24.39809792019104,499.8041856055481,21.482797441816025
1.7103254233631084E12,1.7391304347826086,-5.076086956521739,7.1521739130434785,-6.657908160437127,31.16930915943494,24.51140099899781,499.8568343945545,20.791944359772728
1.7103254233826401E12,1.7608695652173914,-5.08695652173913,7.173913043478261,-6.614202453398997,31.240925936809298,24.6267234834103,499.85250709682794,20.446481757936688
1.7103254234021719E12,1.75,-5.021739130434782,7.130434782608695,-6.607350898665297,31.309369362517522,24.702018463852223,499.82618270232473,20.830673674425327
1.7103254234217036E12,1.7282608695652173,-5.021739130434782,7.130434782608695,-6.636055306918062,31.27222672369799,24.636171416779927,499.82322571554494,20.931066981681226
1.7103254234412356E12,1.7391304347826086,-5.010869565217392,7.173913043478261,-6.699810826755861,31.093220841076477,24.393410014320615,499.8388039873605,21.233545092766892
1.7103254234607673E12,1.75,-5.043478260869565,7.184782608695652,-6.742795317506232,31.020738604156808,24.277943286650576,499.83786640618644,21.291963612075286
1.710325423480299E12,1.7391304347826086,-5.032608695652174,7.195652173913043,-6.756786913488736,30.967584963749047,24.210798050260312,499.83274577054334,21.62768979402659
1.7103254234998308E12,1.7608695652173914,-5.065217391304348,7.184782608695652,-6.760969967957732,30.967945571892926,24.206975603935195,499.8417609741403,21.839222531225985
1.7103254235193625E12,1.75,-5.065217391304348,7.239130434782608,-6.7714276041302215,30.965421314885774,24.193993710755553,499.8644071655759,21.891654955345984
1.7103254235388945E12,1.7391304347826086,-5.08695652173913,7.108695652173913,-6.766234846858365,30.968666788180684,24.20243194132232,499.8514252723963,21.722529735866754
1.7103254235584263E12,1.7282608695652173,-5.021739130434782,7.141304347826087,-6.773951861137374,30.98345172207972,24.209499860942348,499.8398136901634,20.794684981666208
1.710325423577958E12,1.717391304347826,-5.010869565217392,7.217391304347826,-6.762628765419575,30.984966276284013,24.22233751086444,499.8427706769432,22.23048236733465
1.7103254235974897E12,1.7934782608695652,-5.021739130434782,7.141304347826087,-6.757291764890167,30.977609870148882,24.220318105258716,499.8352700275505,22.173794767116878
1.7103254236170215E12,1.75,-5.043478260869565,7.195652173913043,-6.746689885460125,30.975518342914384,24.22882845745426,499.83036575679375,22.19550337737839
1.7103254236365532E12,1.75,-5.076086956521739,7.173913043478261,-6.760392994927526,30.9701092207562,24.209716225828675,499.83627973035334,22.10059131390945
1.7103254236560852E12,1.7282608695652173,-5.043478260869565,7.195652173913043,-6.7570032783750635,30.958569760152074,24.20156648177701,499.84471796092015,22.26365831657151
1.710325423675617E12,1.7608695652173914,-5.043478260869565,7.163043478260869,-6.75483962951179,30.944145434396916,24.189305804885127,499.85034344796463,22.88657282430802
1.7103254236951487E12,1.7282608695652173,-5.032608695652174,7.173913043478261,-6.76904759038062,30.938880555496283,24.169832965115663,499.8554640836077,23.0192044996267
1.7103254237146804E12,1.7391304347826086,-5.043478260869565,7.141304347826087,-6.762123914018145,30.937438122920767,24.175314208902623,499.85474286731994,23.09608615590169
1.7103254237342122E12,1.7608695652173914,-5.010869565217392,7.173913043478261,-6.769119712009396,30.942919366707727,24.173799654698332,499.8585653136451,23.067958720679133
1.710325423753744E12,1.7391304347826086,-5.043478260869565,7.173913043478261,-6.7696966850396025,30.929937473528085,24.160240788488483,499.8424100687993,23.3224759486289
1.710325423773276E12,1.75,-5.054347826086956,7.163043478260869,-6.770706387842464,30.936284176860354,24.16557778901789,499.83714518989865,23.22734752027363
1.7103254237928076E12,1.7391304347826086,-5.065217391304348,7.163043478260869,-6.7597439002685435,30.91854225618151,24.158798355912968,499.8579883406149,23.42250864774092
1.7103254238123394E12,1.7608695652173914,-5.054347826086956,7.173913043478261,-6.753685683451377,30.923374405309488,24.169688721858112,499.8564016647818,23.4046946054333
1.710325423831871E12,1.7391304347826086,-5.032608695652174,7.1521739130434785,-6.757147521632615,30.921571364590093,24.16442384295748,499.8411840011101,23.712365473790822
1.7103254238514028E12,1.7717391304347825,-5.0,7.141304347826087,-6.747483223376658,30.905993092774523,24.158509869397864,499.85705075944077,23.828337052862295
1.7103254238709346E12,1.75,-5.021739130434782,7.173913043478261,-6.752964467163619,30.917965283151304,24.165000815987685,499.8501270830783,23.906949628227906
1.7103254238904666E12,1.7282608695652173,-5.043478260869565,7.173913043478261,-6.717408504177154,30.975734707800715,24.25832620362356,499.84529493395036,23.581320474305212
1.7103254239099983E12,1.7391304347826086,-5.054347826086956,7.184782608695652,-6.721086707244719,30.998741507380192,24.277654800135473,499.84385250137484,23.422869255884798
1.71032542392953E12,1.75,-5.043478260869565,7.195652173913043,-6.72072609910084,30.981937167875433,24.261211068774593,499.84558342046546,23.23174693962895
1.7103254239490618E12,1.7391304347826086,-5.043478260869565,7.173913043478261,-6.712864841564279,30.91356586379598,24.2007010222317,499.85221861031283,23.260162861366616
1.7103254239685935E12,1.75,-5.032608695652174,7.173913043478261,-6.761979670760593,30.89935790292715,24.137378232166558,499.8564016647818,23.53047472601828
1.7103254239881252E12,1.7391304347826086,-5.032608695652174,7.163043478260869,-6.744598358225627,30.872745021908884,24.128146663683257,499.81457112009184,23.54540390317487
1.7103254240076572E12,1.7282608695652173,-5.054347826086956,7.184782608695652,-6.745319574513385,30.889332996527315,24.14401342201393,499.81074867376674,23.828337052862295
1.710325424027189E12,1.7717391304347825,-5.032608695652174,7.206521739130435,-6.673558553881473,30.759297699844566,24.085739145963093,499.83873186573175,24.24729159442086
1.7103254240467207E12,1.75,-5.021739130434782,7.206521739130435,-6.506452740007966,31.511382044718513,25.004929304710547,499.8239469318327,24.298209464336573
1.7103254240662524E12,1.7391304347826086,-5.032608695652174,7.228260869565217,-7.074410566617319,31.870115026249294,24.795704459631978,499.8295724188772,23.744892328368703
1.7103254240857842E12,1.8152173913043477,-5.08695652173913,7.130434782608695,-6.890933143011707,31.171977659699643,24.281044516687935,499.80988321422143,25.057433850459322
1.710325424105316E12,1.7717391304347825,-4.945652173913043,7.141304347826087,-6.752531737390965,31.05665517528715,24.304123437896187,499.83216879751313,25.429797819828728
1.710325424124848E12,1.6630434782608696,-5.065217391304348,7.369565217391304,-6.710340584557127,30.982369897648088,24.27202931309096,499.82618270232473,25.028945807092885
1.7103254241443796E12,1.7826086956521738,-5.076086956521739,6.9021739130434785,-6.703056300050772,30.972272869619477,24.269216569568705,499.82654331046865,25.131070033439403
1.7103254241639114E12,1.6304347826086956,-5.010869565217392,7.217391304347826,-6.6853865010007025,30.9859038574581,24.300517356457398,499.8121189847135,24.48514872612342
1.710325424183443E12,1.75,-5.021739130434782,7.08695652173913,-6.6713227833894235,31.00321304836429,24.331890264974867,499.8300051486499,24.73836776475522
1.7103254242029749E12,1.717391304347826,-5.08695652173913,7.228260869565217,-6.665769417973688,31.04453874165282,24.37876932367913,499.8235863236888,23.537542645638307
1.7103254242225068E12,1.7608695652173914,-5.08695652173913,7.163043478260869,-6.642546253507883,31.07122374429986,24.428677490791976,499.8188262961896,23.091686736546368
1.7103254242420386E12,1.7608695652173914,-5.08695652173913,7.1521739130434785,-6.610812736846535,31.153298157846713,24.542485421000176,499.8307263649376,22.20148947256678
1.7103254242615703E12,1.7282608695652173,-5.0978260869565215,7.141304347826087,-6.5749682873449675,31.226790097569243,24.651821810224273,499.8121189847135,22.314576186487223
1.710325424281102E12,1.7282608695652173,-5.021739130434782,7.0978260869565215,-6.555423325946728,31.294512306989706,24.73908898104298,499.8243075399766,22.7072784551714
1.7103254243006338E12,1.7391304347826086,-5.010869565217392,7.108695652173913,-6.555639690833055,31.33612648679334,24.780486795960286,499.832529405657,24.314436830811125
1.7103254243201655E12,1.7282608695652173,-5.010869565217392,7.141304347826087,-6.598119330181996,31.25765815468528,24.659538824503283,499.80094013225323,25.024546387737562
1.7103254243396975E12,1.7391304347826086,-5.043478260869565,7.173913043478261,-6.675722202744747,31.10324574747631,24.427523544731564,499.83887610898927,25.79992601870609
1.7103254243592292E12,1.75,-5.076086956521739,7.173913043478261,-6.6887762175531655,31.034297470366656,24.34552125281349,499.8216390397119,25.99090409170438
1.710325424378761E12,1.7391304347826086,-5.08695652173913,7.173913043478261,-6.704426610997512,30.997515439691004,24.29308882869349,499.8247402697492,26.311989583014203
1.7103254243982927E12,1.6956521739130435,-5.163043478260869,7.032608695652174,-6.7117830171326425,31.007251859575735,24.295468842443093,499.8376500413001,26.390602158379814
1.7103254244178245E12,1.6956521739130435,-5.0978260869565215,7.1521739130434785,-6.714595760654898,31.003645778136946,24.289050017482047,499.84695373141216,26.374302670276485
1.7103254244373562E12,1.7065217391304348,-5.032608695652174,6.967391304347826,-6.72844311337985,31.01165127893106,24.28320816555121,499.8244517832341,26.189887665496787
1.7103254244568882E12,1.6739130434782608,-4.989130434782608,7.195652173913043,-6.729092208038832,31.03660536248748,24.30751315444865,499.82409117509025,26.009006620527106
1.71032542447642E12,1.75,-5.021739130434782,7.08695652173913,-6.7182739637224635,31.030042294268885,24.31176833054642,499.81875417456087,26.29713252748639
1.7103254244959517E12,1.7065217391304348,-5.076086956521739,7.1521739130434785,-6.710989679216109,31.026580456087647,24.315590776871538,499.81305656588756,26.082714925135964
1.7103254245154834E12,1.7065217391304348,-5.108695652173913,7.108695652173913,-6.7056526786867,31.02362346930784,24.31797079062114,499.8082244167596,25.9929234973101
1.7103254245350151E12,1.6956521739130435,-5.108695652173913,7.108695652173913,-6.703705394709754,31.0154016036274,24.311696208917645,499.8040413622906,25.885101662290296
1.7103254245545469E12,1.717391304347826,-5.065217391304348,7.065217391304348,-6.700748407929947,30.99398147988099,24.293233071951043,499.813561417289,25.97309004939676
1.7103254245740789E12,1.7391304347826086,-5.032608695652174,7.119565217391304,-6.7169036527757235,30.989654182154442,24.27275052937872,499.8182493231594,25.89447747403115
1.7103254245936106E12,1.7391304347826086,-5.021739130434782,7.08695652173913,-6.717696990692257,30.98128807321645,24.263591082524194,499.82026872876514,25.78189561151214
1.7103254246131423E12,1.7391304347826086,-5.021739130434782,7.0978260869565215,-6.727866140349644,30.978619572951743,24.2507534326021,499.81291232263,25.274808439589556
1.710325424632674E12,1.7282608695652173,-5.054347826086956,7.108695652173913,-6.726351586145352,30.972272869619474,24.24592128347412,499.8061328895251,24.58662385781096
1.7103254246522058E12,1.7282608695652173,-5.0978260869565215,7.119565217391304,-6.717336382548378,30.964195247196585,24.246858864648207,499.81940326921983,23.400872159108182
1.7103254246717375E12,1.7391304347826086,-5.0978260869565215,7.141304347826087,-6.724404302168406,30.963690395795155,24.23928609362675,499.82618270232473,22.78343889515864
1.7103254246912695E12,1.75,-5.076086956521739,7.1521739130434785,-6.733203140879052,30.973931667081317,24.240728526202265,499.8392367171332,22.597725701060977
1.7103254247108013E12,1.75,-5.043478260869565,7.130434782608695,-6.718562450237567,30.952078813562252,24.233516363324686,499.8253172427794,22.336789648150166
1.710325424730333E12,1.75,-5.043478260869565,7.0978260869565215,-6.723683085880648,30.963690395795155,24.240007309914507,499.8245960264917,21.676083406935145
1.7103254247498647E12,1.717391304347826,-5.043478260869565,7.108695652173913,-6.733780113909258,30.978403208065416,24.244623094156157,499.82437966160535,20.09438396625328
1.7103254247693965E12,1.7282608695652173,-5.076086956521739,7.119565217391304,-6.713225449708158,31.033936862222777,24.32071141251462,499.8183214447882,19.881841526251023
1.7103254247889282E12,1.75,-5.076086956521739,7.130434782608695,-6.710556949443454,31.07360375804946,24.363046808606008,499.81940326921983,19.40677635750489
1.7103254248084602E12,1.7065217391304348,-5.043478260869565,7.141304347826087,-6.693752609938695,31.03920174112341,24.345449131184715,499.8204850936515,19.316696443163927
1.710325424827992E12,1.7065217391304348,-5.043478260869565,7.1521739130434785,-6.72707280243311,30.95215093519103,24.22507813275792,499.81190261982715,18.929836026410584
1.7103254248475237E12,1.7065217391304348,-5.076086956521739,7.108695652173913,-6.751449912959328,30.950636380986737,24.19918646802741,499.81089291702426,19.20231153992552
1.7103254248670554E12,1.7065217391304348,-5.054347826086956,7.076086956521739,-6.750656575042794,30.94443392091202,24.193777345869226,499.8236584453176,19.34128991857647
1.7103254248865872E12,1.717391304347826,-5.08695652173913,7.130434782608695,-6.753397196936274,30.932822338679117,24.179425141742843,499.80000255107916,19.33003894448745
1.710325424906119E12,1.7065217391304348,-5.054347826086956,7.163043478260869,-6.666562755890221,30.81749985426663,24.150937098376406,499.7992813347914,19.86510930837504
1.710325424925651E12,1.7065217391304348,-5.032608695652174,7.1521739130434785,-6.673486432252697,32.41831152657408,25.74482509432138,499.81247959285736,19.60878903970588
1.7103254249451826E12,1.7391304347826086,-5.021739130434782,7.206521739130435,-7.065106876505242,31.849199753904315,24.784092877399075,499.8060607678963,20.239492683350168
1.7103254249647144E12,1.7934782608695652,-5.076086956521739,7.032608695652174,-6.797175025603178,31.15293754970283,24.355762524099653,499.81146989005447,20.974484202204252
1.710325424984246E12,1.7282608695652173,-4.989130434782608,7.163043478260869,-6.742434709362353,31.04915452589447,24.306719816532116,499.81370566054653,20.50605422330549
1.7103254250037778E12,1.6521739130434783,-5.163043478260869,7.217391304347826,-6.701325380960153,31.00631427840165,24.304988897441497,499.8176723501292,20.378398940372342
1.7103254250233098E12,1.75,-5.065217391304348,6.978260869565217,-6.6863962038035645,30.999029993895295,24.31263379009173,499.8278414997866,20.269567402549672
1.7103254250428416E12,1.717391304347826,-5.021739130434782,7.141304347826087,-6.698152029294018,31.018358590407207,24.32020656111319,499.8260384590672,20.377172872683154
1.7103254250623733E12,1.7826086956521738,-5.0,7.108695652173913,-6.671467026646975,31.033504132450123,24.362037105803147,499.8128402010012,19.778202745700213
1.710325425081905E12,1.7391304347826086,-5.065217391304348,7.130434782608695,-6.655023295286095,31.067906149376174,24.41288285409008,499.8183214447882,18.86499868214115
1.7103254251014368E12,1.75,-5.076086956521739,7.141304347826087,-6.645503240287691,31.120843424897604,24.475340184609912,499.8266154320974,17.56962210769917
1.7103254251209685E12,1.7934782608695652,-5.076086956521739,7.141304347826087,-6.616366102262271,31.170030375722696,24.553664273460424,499.8281299863017,16.562804169989132
1.7103254251405005E12,1.7717391304347825,-5.0978260869565215,7.163043478260869,-6.561481542763895,31.281530413810067,24.72004887104617,499.817744471758,16.027805927730313
1.7103254251600322E12,1.7391304347826086,-5.054347826086956,7.1521739130434785,-6.553476041969781,31.336703459823546,24.783227417853766,499.81760022850045,15.995423316409985
1.710325425179564E12,1.7282608695652173,-5.032608695652174,7.108695652173913,-6.564799137687581,31.34658412296583,24.78178498527825,499.82921181073334,16.062063701398817
1.7103254251990957E12,1.75,-5.021739130434782,7.108695652173913,-6.641103820932368,31.223688867531884,24.582585046599515,499.81291232263,16.909709204400684
1.7103254252186274E12,1.7717391304347825,-5.010869565217392,7.108695652173913,-6.6672118505492035,31.109303964293478,24.442092113744273,499.81190261982715,16.71923598280382
1.7103254252381592E12,1.7717391304347825,-5.021739130434782,7.217391304347826,-6.703849637967306,31.030763510556643,24.326913872589337,499.8222160127421,16.790203665519197
1.7103254252576912E12,1.7826086956521738,-5.043478260869565,7.25,-6.705292070542821,30.999895453440605,24.294603382897783,499.8352700275505,17.300752675623023
1.710325425277223E12,1.7826086956521738,-5.076086956521739,7.141304347826087,-6.705219948914046,30.997154831547125,24.29193488263308,499.8213505531968,18.95233797458863
1.7103254252967546E12,1.7934782608695652,-5.076086956521739,7.217391304347826,-6.704354489368736,31.008477927264924,24.304123437896187,499.81586930940983,18.838818530895537
1.7103254253162864E12,1.6521739130434783,-5.043478260869565,7.043478260869565,-6.695699893915641,31.007756710977166,24.312056817061524,499.8137777821753,18.99654853302819
1.710325425335818E12,1.684782608695652,-5.010869565217392,7.217391304347826,-6.70240720539179,31.02102709067191,24.31861988528012,499.81868205293205,19.297872698053446
1.7103254253553499E12,1.7391304347826086,-5.010869565217392,7.163043478260869,-6.69057925827256,31.02549863165601,24.33491937338345,499.80779168698695,20.19766213866021
1.7103254253748818E12,1.7391304347826086,-5.032608695652174,7.217391304347826,-6.6775252434641414,31.013454319650453,24.33592907618631,499.8093062411912,20.69248863369091
1.7103254253944136E12,1.7391304347826086,-5.065217391304348,7.163043478260869,-6.68423255494029,31.012588860105144,24.328356305164853,499.80692622744164,20.753575653264004
1.7103254254139453E12,1.7391304347826086,-5.065217391304348,7.184782608695652,-6.662668187936329,30.9879953846926,24.32532719675627,499.810676552138,20.9925146093982
1.710325425433477E12,1.7282608695652173,-5.032608695652174,7.1521739130434785,-6.679616770698639,30.988067506321375,24.308450735622735,499.8281299863017,21.17685749254912
1.7103254254530088E12,1.7282608695652173,-5.021739130434782,7.1521739130434785,-6.678102216494348,30.973715302194993,24.295613085700644,499.8307984865664,21.434980801937677
1.7103254254725405E12,1.7065217391304348,-5.054347826086956,7.163043478260869,-6.67240460782106,30.96109401715923,24.28868940933817,499.8027431729726,21.510564268894704
1.7103254254920725E12,1.7391304347826086,-5.032608695652174,7.163043478260869,-6.663822133996741,30.94140481250344,24.277582678506697,499.81659052569756,21.76421603729916
1.7103254255116042E12,1.7282608695652173,-5.021739130434782,7.173913043478261,-6.661081512103261,30.935490838943824,24.274409326840562,499.81002745747895,21.69332047621256
1.710325425531136E12,1.7608695652173914,-5.043478260869565,7.184782608695652,-6.6713227833894235,30.93296658193667,24.261643798547247,499.81716749872777,21.872759088606728
1.7103254255506677E12,1.7282608695652173,-5.065217391304348,7.195652173913043,-6.66367789073919,30.934481136140963,24.270803245401773,499.78247699528663,21.752171725293604
1.7103254255701995E12,1.7608695652173914,-5.065217391304348,7.184782608695652,-6.6545184438846645,30.92135499970377,24.266836555819104,499.80735895721426,21.91624843075853
1.7103254255897312E12,1.7391304347826086,-5.054347826086956,7.195652173913043,-6.657114822520593,30.92770170303604,24.270586880515445,499.8328900138009,21.91963814731099
1.7103254256092632E12,1.75,-5.032608695652174,7.1521739130434785,-6.66641851263267,30.93779873106465,24.27138021843198,499.8139220254329,22.27916446675831
1.710325425628795E12,1.7608695652173914,-5.032608695652174,7.1521739130434785,-6.656105119717732,30.92222045924908,24.266115339531346,499.8260384590672,22.319119849100097
1.7103254256483267E12,1.75,-5.010869565217392,7.173913043478261,-6.646512943090552,30.923446526938267,24.276933583847715,499.8033201460028,22.5952735656826
1.7103254256678584E12,1.75,-5.021739130434782,7.1521739130434785,-6.626102522147003,30.981504438102778,24.355401915955774,499.81731174198535,22.815677263221417
1.7103254256873901E12,1.75,-5.054347826086956,7.206521739130435,-6.618962480898199,31.014680387339638,24.39571790644144,499.8242354183478,22.446414523889366
1.7103254257069219E12,1.7282608695652173,-5.065217391304348,7.184782608695652,-6.610019398930001,31.00451123768225,24.394491838752252,499.8331063786872,22.46675282320414
1.7103254257264539E12,1.717391304347826,-5.065217391304348,7.163043478260869,-6.635261969001529,30.91724406686355,24.28198209786202,499.80151710528344,22.348978203413274
1.7103254257459856E12,1.75,-5.021739130434782,7.163043478260869,-6.668798526382271,30.89971851107103,24.230919984688757,499.81615779592494,22.849790793632366
1.7103254257655173E12,1.7391304347826086,-5.021739130434782,7.141304347826087,-6.64723415937831,30.884933577171992,24.23769941779368,499.80981109259267,23.047692542993136
1.710325425785049E12,1.75,-5.043478260869565,7.1521739130434785,-6.656754214376714,30.886087523232405,24.22933330885569,499.8217832829694,23.318725623932558
1.7103254258045808E12,1.7391304347826086,-5.010869565217392,7.173913043478261,-6.623506143511075,30.76593288969194,24.142426746180863,499.82026872876514,23.29074243196755
1.7103254258241128E12,1.75,-5.032608695652174,7.195652173913043,-6.483373818799713,31.980965969677683,25.49759215087797,499.8153644580084,22.68520923676601
1.7103254258436445E12,1.7391304347826086,-5.021739130434782,7.25,-6.921801200127745,32.25336936156385,25.331568161436103,499.853444678002,22.536278073344004
1.7103254258631763E12,1.8152173913043477,-5.08695652173913,7.065217391304348,-6.743949263566645,31.164116402163078,24.420167138596433,499.8314475812254,23.370725318279902
1.710325425882708E12,1.717391304347826,-4.978260869565217,7.25,-6.652643281536494,31.03458595688176,24.381942675345265,499.83988581179216,23.065867193444635
1.7103254259022397E12,1.6630434782608696,-5.054347826086956,7.260869565217391,-6.621054008132697,30.984749911397685,24.36369590326499,499.8412561227389,23.506386102007163
1.7103254259217715E12,1.7934782608695652,-5.054347826086956,6.967391304347826,-6.624804332829039,30.98900508749546,24.36420075466642,499.82481239137803,23.862089975129365
1.7103254259413035E12,1.717391304347826,-5.043478260869565,7.228260869565217,-6.59480173525831,30.982514140905636,24.387712405647328,499.83627973035334,23.967315431513242
1.7103254259608352E12,1.7608695652173914,-5.0,7.119565217391304,-6.587156842608076,30.99902999389529,24.411873151287217,499.8477470693287,24.127497569024275
1.710325425980367E12,1.717391304347826,-5.021739130434782,7.239130434782608,-6.575184652231295,31.027013185860298,24.451828533629005,499.84529493395036,23.30754677147231
1.7103254259998987E12,1.75,-5.076086956521739,7.184782608695652,-6.547129338637512,31.076488623200493,24.529359284562982,499.8277693781578,22.76252362281366
1.7103254260194304E12,1.7608695652173914,-5.076086956521739,7.184782608695652,-6.532200161480923,31.131589547585197,24.599389386104274,499.8173838636141,21.997890114532723
1.7103254260389622E12,1.75,-5.08695652173913,7.1521739130434785,-6.480921683421336,31.230973152038235,24.7500514686169,499.8233699588025,21.76630756453366
1.7103254260584941E12,1.7717391304347825,-5.021739130434782,7.141304347826087,-6.456400329637567,31.288454090172543,24.832053760534976,499.81911478270473,21.97430634192304
1.710325426078026E12,1.717391304347826,-4.989130434782608,7.163043478260869,-6.473348912399878,31.315139092819585,24.841790180419707,499.8166626473263,22.488894163238307
1.7103254260975576E12,1.7282608695652173,-5.0,7.195652173913043,-6.530613485647856,31.22044339423697,24.689829908589115,499.8231535939162,22.295896684634293
1.7103254261170894E12,1.7282608695652173,-5.043478260869565,7.163043478260869,-6.569342800300456,31.092788111303825,24.523445311003368,499.8188262961896,21.839006166339658
1.710325426136621E12,1.7608695652173914,-5.043478260869565,7.173913043478261,-6.598552059954651,30.99354875010833,24.394996690153683,499.82293722902983,21.88588522504392
1.7103254261561528E12,1.7608695652173914,-5.054347826086956,7.206521739130435,-6.607927871695503,30.973571058937438,24.365643187241936,499.8272645267564,21.809075690397705
1.7103254261756848E12,1.7608695652173914,-5.108695652173913,7.130434782608695,-6.618457629496769,30.97097468030151,24.352517050804742,499.813561417289,22.320922889819492
1.7103254261952166E12,1.7282608695652173,-5.043478260869565,7.206521739130435,-6.624371603056384,30.98265838416319,24.358286781106806,499.8300051486499,22.15576435992293
1.7103254262147483E12,1.7608695652173914,-5.032608695652174,7.0,-6.622929170480868,30.98842811446525,24.365498943984385,499.82791362141535,21.783760998697403
1.71032542623428E12,1.7065217391304348,-4.978260869565217,7.239130434782608,-6.620909764875146,30.990231155184645,24.3693213903095,499.82257662088597,21.669231852201445
1.7103254262538118E12,1.75,-5.010869565217392,7.1521739130434785,-6.617736413209011,30.992106317532816,24.374369904323807,499.8049068218359,22.59491295753872
1.7103254262733435E12,1.7391304347826086,-5.054347826086956,7.206521739130435,-6.599778127643839,30.995207547570175,24.395429419926337,499.82654331046865,22.438336901466478
1.7103254262928755E12,1.75,-5.08695652173913,7.163043478260869,-6.6085769663544855,31.00451123768225,24.395934271327768,499.8274808916427,22.421604683590495
1.7103254263124072E12,1.7391304347826086,-5.08695652173913,7.195652173913043,-6.605692101203454,30.983740208594824,24.378048107391372,499.82654331046865,22.57796437477641
1.710325426331939E12,1.75,-5.054347826086956,7.163043478260869,-6.617087318550029,30.98655295211708,24.369465633567053,499.8188262961896,22.877557620711045
1.7103254263514707E12,1.7391304347826086,-5.010869565217392,7.1521739130434785,-6.609586669157347,30.97284984264968,24.363263173492335,499.8125517144861,23.019997837543233
1.7103254263710024E12,1.75,-5.0,7.1521739130434785,-6.614346696656549,30.965565558143325,24.351218861486778,499.789112185134,23.044951921099656
1.7103254263905342E12,1.7391304347826086,-5.0,7.1521739130434785,-6.618457629496769,30.95828127363697,24.339823644140203,499.8335391084599,23.004996538757865
1.7103254264100662E12,1.7391304347826086,-5.043478260869565,7.1521739130434785,-6.618313386239217,30.954314584054302,24.336001197815087,499.8152202147508,22.900708663548073
1.710325426429598E12,1.7608695652173914,-5.054347826086956,7.163043478260869,-6.615284277830634,30.951213354016943,24.33592907618631,499.8185378096745,22.787405584741308
1.7103254264491296E12,1.75,-5.043478260869565,7.206521739130435,-6.631944374077842,30.953809732652875,24.32186535857503,499.80649349766895,22.199686431847386
1.7103254264686614E12,1.7608695652173914,-5.032608695652174,7.217391304347826,-6.620188548587388,30.942486636935072,24.322298088347686,499.81363353891777,22.274115952744005
1.710325426488193E12,1.75,-5.032608695652174,7.184782608695652,-6.61124546661919,30.932317487277686,24.321072020658498,499.78687641464194,22.4585309575237
1.710325426507725E12,1.75,-5.032608695652174,7.141304347826087,-6.616582467148598,30.93275021705034,24.316167749901744,499.80750320047184,22.951698655092557
1.7103254265272568E12,1.7608695652173914,-5.032608695652174,7.184782608695652,-6.619611575557181,30.93484174428484,24.31523016872766,499.8239469318327,23.28014055253751
1.7103254265467886E12,1.7391304347826086,-5.021739130434782,7.184782608695652,-6.619250967413302,30.93188475750503,24.31263379009173,499.82510087789314,23.8035993341922
1.7103254265663203E12,1.7282608695652173,-5.032608695652174,7.195652173913043,-6.613264872224912,30.92524956765766,24.31198469543275,499.81760022850045,24.118121757283422
1.710325426585852E12,1.7391304347826086,-5.043478260869565,7.184782608695652,-6.610812736846535,30.959074611553504,24.34826187470697,499.8041856055481,24.24577704021657
1.7103254266053838E12,1.75,-5.065217391304348,7.184782608695652,-6.606485439119988,31.00984823821166,24.403362799091674,499.8040413622906,24.321288385544825
1.7103254266249158E12,1.7391304347826086,-5.08695652173913,7.195652173913043,-6.595667194803619,31.039706592524837,24.44403939772122,499.8051231867222,24.788059566981744
1.7103254266444475E12,1.7391304347826086,-5.032608695652174,7.239130434782608,-6.587373207494403,31.028744104950917,24.441370897456515,499.82070145853777,24.97023880126939
1.7103254266639792E12,1.7282608695652173,-5.032608695652174,7.184782608695652,-6.607855750066728,30.91630648568946,24.308450735622735,499.8119747414559,25.132296101128592
1.710325426683511E12,1.7391304347826086,-5.032608695652174,7.141304347826087,-6.64088745604604,30.92546593254399,24.28457847649795,499.81089291702426,25.437082104335083
1.7103254267030427E12,1.75,-5.043478260869565,7.173913043478261,-6.6322328605929455,30.915080418000276,24.28284755740733,499.808729268161,25.486341176788947
1.7103254267225745E12,1.7391304347826086,-5.043478260869565,7.184782608695652,-6.630141333358448,30.914575566598845,24.284434233240397,499.82012448550756,25.64464815195181
1.7103254267421064E12,1.7391304347826086,-5.043478260869565,7.184782608695652,-6.563933678142272,30.790959094877138,24.227025416734865,499.8218554045982,25.77865013821723
1.7103254267616382E12,1.7282608695652173,-5.054347826086956,7.217391304347826,-6.510491551219411,32.283083472619474,25.772591921400064,499.8220717694845,25.83007285953437
1.71032542678117E12,1.7717391304347825,-5.054347826086956,7.239130434782608,-6.941201918268433,31.99856364709898,25.057361728830546,499.82452390486293,26.29287735138862
1.7103254268007017E12,1.826086956521739,-5.08695652173913,7.021739130434782,-6.6874059066064255,31.16765036197309,24.480244455366666,499.81514809312205,27.447256141573924
1.7103254268202334E12,1.7391304347826086,-4.945652173913043,7.25,-6.616005494118392,31.051750904530394,24.435745410412004,499.78305396831684,27.462185318730512
1.7103254268397651E12,1.6739130434782608,-5.076086956521739,7.217391304347826,-6.598407816697099,31.02066648252803,24.42225866583093,499.82084570179535,27.896213280703222
1.710325426859297E12,1.75,-5.065217391304348,7.021739130434782,-6.58982534287278,31.034225348737877,24.4444000058651,499.8152923363796,27.630733565179536
1.7103254268788289E12,1.6956521739130435,-5.043478260869565,7.228260869565217,-6.588959883327471,31.04172599813056,24.45276611480309,499.7888236986189,27.532071177014256
1.7103254268983606E12,1.7391304347826086,-5.032608695652174,7.0978260869565215,-6.57150644916373,31.066680081686982,24.495173632523255,499.8060607678963,27.428720882978546
1.7103254269178923E12,1.7391304347826086,-5.08695652173913,7.163043478260869,-6.559029407385517,31.094735395280768,24.535705987895252,499.8015892269122,26.77327952066416
1.710325426937424E12,1.7608695652173914,-5.08695652173913,7.173913043478261,-6.537825648525435,31.160221834209185,24.62239618568375,499.79668495615545,26.311556853241548
1.7103254269569558E12,1.7608695652173914,-5.108695652173913,7.141304347826087,-6.510130943075532,31.20825483897386,24.69812389589833,499.8030316594877,25.948208087469112
1.7103254269764878E12,1.7282608695652173,-5.08695652173913,7.195652173913043,-6.462602789712285,31.321846404295734,24.85924361458345,499.8120468630847,25.76408156920452
1.7103254269960195E12,1.717391304347826,-5.032608695652174,7.1521739130434785,-6.455030018690827,31.381058261520657,24.92602824282983,499.8143547552055,25.838366846843584
1.7103254270155513E12,1.7717391304347825,-5.021739130434782,7.130434782608695,-6.4529384914563295,31.40997903465975,24.95704054320342,499.78601095509663,26.012324215450793
