Shimmer_6D72_TimestampSync_Unix_CAL,Shimmer_6D72_Accel_LN_X_CAL,Shimmer_6D72_Accel_LN_Y_CAL,Shimmer_6D72_Accel_LN_Z_CAL,Shimmer_6D72_ECG_LA-RA_24BIT_CAL,Shimmer_6D72_ECG_LL-LA_24BIT_CAL,Shimmer_6D72_ECG_LL-RA_24BIT_CAL,Shimmer_6D72_ECG_RESP_24BIT_CAL,Shimmer_6D72_ECG_Vx-RL_24BIT_CAL
ms,m/(s^2),m/(s^2),m/(s^2),mV,mV,mV,mV,mV
1.7089496576164087E12,3.119565217391304,-6.195652173913043,4.315217391304348,14.519454183513426,-1.9126655951339728,12.606788588379453,482.4843928199283,600.8037472729382
1.708949657635941E12,3.0869565217391304,-6.173913043478261,4.326086956521739,14.505246222644596,-1.846818548061675,12.65842767458292,482.4855467659887,600.7867986901759
1.7089496576554731E12,3.0760869565217392,-6.195652173913043,4.326086956521739,14.410911132205861,-1.80527648988682,12.60563464231904,482.48655646879155,600.7637918905964
1.7089496576750054E12,3.0978260869565215,-6.195652173913043,4.33695652173913,14.37254242569714,-1.8220087077628033,12.550533717934337,482.486412225534,600.7450402671147
1.7089496576945376E12,3.108695652173913,-6.184782608695652,4.380434782608695,14.343333166042944,-1.836288790260408,12.507044375782536,482.487061320193,600.7371790095782
1.7089496577140696E12,3.119565217391304,-6.173913043478261,4.315217391304348,14.34665076096663,-1.872565969534632,12.474084791431999,482.48872011765485,600.7339335362832
1.7089496577336018E12,3.0652173913043477,-6.206521739130435,4.304347826086956,14.358550829714636,-1.8666519959750172,12.491898833739619,482.4889364825412,600.7133067504534
1.708949657753134E12,3.141304347826087,-6.163043478260869,4.260869565217392,14.355449599677277,-1.8652095633995014,12.490240036277775,482.4921098342073,600.7247019677999
1.7089496577726663E12,3.0652173913043477,-6.206521739130435,4.326086956521739,14.366700573766302,-1.8535979811665992,12.513102592599703,482.4893692123138,600.712152804393
1.7089496577921982E12,3.0543478260869565,-6.195652173913043,4.271739130434782,14.384514616073922,-1.8533816162802719,12.53113299979365,482.4876382932232,600.7145328181425
1.7089496578117305E12,3.0652173913043477,-6.228260869565217,4.358695652173913,14.39670317133703,-1.878047213321592,12.518655958015438,482.491244374662,600.7221777107928
1.7089496578312627E12,3.0978260869565215,-6.239130434782608,4.3478260869565215,14.403194117926851,-1.8750902265417846,12.528103891385067,482.4921819558361,600.7208073998461
1.708949657850795E12,3.1304347826086953,-6.271739130434782,4.304347826086956,14.417041470651803,-1.884538159911413,12.53250331074039,482.490595280003,600.7170570751497
1.7089496578703271E12,3.108695652173913,-6.271739130434782,4.380434782608695,14.409252334744018,-1.8910291065012341,12.518223228242784,482.49412923981305,600.7247019677999
1.7089496578898591E12,3.0869565217391304,-6.217391304347826,4.326086956521739,14.420070579060386,-1.8896587955544941,12.530411783505892,482.4937686316691,600.7106382501887
1.7089496579093914E12,3.0869565217391304,-6.206521739130435,4.271739130434782,14.417041470651803,-1.9102134597555942,12.506828010896209,482.49434560469933,600.7177061698087
1.7089496579289236E12,3.0760869565217392,-6.184782608695652,4.271739130434782,14.417690565310785,-1.9077613243772173,12.509929240933568,482.49340802352526,600.7065273173484
1.7089496579484558E12,3.0652173913043477,-6.184782608695652,4.315217391304348,14.41949360603018,-1.8954285258565573,12.524065080173623,482.4929031721238,600.7045079117427
1.708949657967988E12,3.0543478260869565,-6.228260869565217,4.293478260869565,14.428436687998378,-1.9047322159686342,12.523704472029744,482.4927589288663,600.695420586517
1.70894965798752E12,3.0217391304347827,-6.206521739130435,4.293478260869565,14.425335457961019,-1.9032176617643426,12.522117796196676,482.4923261990936,600.7034982089399
1.7089496580070522E12,3.043478260869565,-6.239130434782608,4.293478260869565,14.428148201483275,-1.9032897833931184,12.524858418090156,482.4887922392836,600.6988824246982
1.7089496580265845E12,3.0217391304347827,-6.25,4.260869565217392,14.430888823376755,-1.8995394586967773,12.531349364679977,482.4903067934879,600.7097727906433
1.7089496580461167E12,3.032608695652174,-6.206521739130435,4.282608695652174,14.437740378110455,-1.9006212831284142,12.53711909498204,482.49405711818423,600.7039309387125
1.7089496580656487E12,3.0652173913043477,-6.173913043478261,4.282608695652174,14.445962243790895,-1.9004770398708626,12.545485203920032,482.49268680723753,600.6854678017459
1.708949658085181E12,3.0543478260869565,-6.184782608695652,4.184782608695652,14.462910826553205,-1.9155504602850026,12.547360366268203,482.4927589288663,600.6884969101545
1.7089496581047131E12,3.043478260869565,-6.173913043478261,4.228260869565217,14.46283870492443,-1.885547862714274,12.577290842210155,482.491244374662,600.6913096536767
1.7089496581242454E12,3.0869565217391304,-6.1521739130434785,4.260869565217392,14.494572221585779,-1.8928321472206306,12.601740074365148,482.49196559094975,600.6982333300392
1.7089496581437776E12,3.0652173913043477,-6.141304347826087,4.282608695652174,14.526666346391005,-1.9164880414590897,12.610178304931916,482.49384075329795,600.7081139931815
1.7089496581633096E12,3.0869565217391304,-6.195652173913043,4.326086956521739,14.523709359611198,-1.920526852670534,12.603182506940664,482.4939128749267,600.6834483961402
1.7089496581828418E12,3.0543478260869565,-6.239130434782608,4.380434782608695,14.530993644117553,-1.9296141778962834,12.60137946622127,482.4924704423512,600.6897229778436
1.708949658202374E12,3.043478260869565,-6.239130434782608,4.3478260869565215,14.467815097309959,-1.9203826094129806,12.547432487896979,482.4930474153814,600.6825108149661
1.7089496582219062E12,3.032608695652174,-6.228260869565217,4.369565217391305,14.472358759922834,-1.934302083766708,12.538056676156126,482.4913164962908,600.6882805452682
1.7089496582414382E12,3.0652173913043477,-6.217391304347826,4.33695652173913,14.576358148617524,-1.8080892334090741,12.76826891520845,482.48987406371526,600.9006066203841
1.7089496582609705E12,3.0543478260869565,-6.206521739130435,4.4021739130434785,15.118784918640248,-1.214960958356972,13.903823960283276,482.48756617159444,600.6833041528827
1.7089496582805027E12,3.010869565217391,-6.260869565217391,4.4021739130434785,14.45238106875194,-1.7331548611110286,12.719226207640911,482.49528318587346,600.538123314157
1.708949658300035E12,3.108695652173913,-6.195652173913043,3.891304347826087,14.512314142264623,-2.2103115570916607,12.302002585172962,482.4888643609124,600.7696337425273
1.7089496583195671E12,2.8260869565217392,-6.173913043478261,4.826086956521739,14.493995248555573,-1.968199249291331,12.525795999264242,482.4886479960261,600.704724276629
1.708949658339099E12,3.260869565217391,-6.3478260869565215,4.184782608695652,14.520896616088942,-1.9384851382357056,12.582411477853237,482.4897298204577,600.6818617203071
1.7089496583586313E12,3.0543478260869565,-6.293478260869565,4.4021739130434785,14.519021453740772,-1.9204547310417581,12.598566722699013,482.48900860416995,600.6749380439446
1.7089496583781636E12,3.184782608695652,-6.130434782608695,4.228260869565217,14.547870105251087,-1.933869353994055,12.614000751257032,482.4893692123138,600.6971515056076
1.7089496583976958E12,3.108695652173913,-6.141304347826087,4.33695652173913,14.557606525135819,-1.9293256913811785,12.62828083375464,482.486412225534,600.6869102343214
1.7089496584172278E12,3.141304347826087,-6.282608695652174,4.228260869565217,14.588835190395736,-1.940793030356529,12.648042160039207,482.48215704943624,600.7063830740909
1.70894965843676E12,3.1630434782608696,-6.260869565217391,4.326086956521739,14.601817083575378,-1.9330760160775196,12.668741067497859,482.4802097654593,600.7366741581767
1.7089496584562922E12,3.184782608695652,-6.25,4.315217391304348,14.657350737732738,-1.9671895464884699,12.690161191244268,482.47833460311114,600.7699943506711
1.7089496584758245E12,3.184782608695652,-6.228260869565217,4.271739130434782,14.693195187234306,-1.9785126422062689,12.714682545028037,482.4813637115197,600.8036751513094
1.7089496584953567E12,3.2065217391304346,-6.195652173913043,4.163043478260869,14.685622416212848,-1.9399275708112214,12.745694845401626,482.47920006265645,600.8028818133929
1.7089496585148887E12,3.1739130434782608,-6.130434782608695,4.25,14.628646329479974,-1.8711235369591162,12.757522792520858,482.47847884636866,600.7524687948786
1.708949658534421E12,3.152173913043478,-6.195652173913043,4.3478260869565215,14.571886607633425,-1.8555452651435456,12.71634134248988,482.4782624814824,600.7132346288246
1.7089496585539531E12,3.1304347826086953,-6.228260869565217,4.4021739130434785,14.517434777907704,-1.88836060623653,12.629074171671174,482.4788394545126,600.6974399921227
1.7089496585734854E12,3.1630434782608696,-6.271739130434782,4.293478260869565,14.51390081809769,-1.8986018775226938,12.615298940574997,482.4750170081874,600.6895066129573
1.7089496585930173E12,3.0978260869565215,-6.228260869565217,4.326086956521739,14.528757873625503,-1.9263687046013729,12.60238916902413,482.47508912981624,600.6960696811759
1.7089496586125496E12,3.0978260869565215,-6.217391304347826,4.423913043478261,14.53582579324553,-1.936970584031414,12.598855209214117,482.4760267109903,600.713739480226
1.7089496586320818E12,3.1739130434782608,-6.206521739130435,4.293478260869565,14.542821591236782,-1.9213923122158434,12.621429279020939,482.47674792727804,600.6923193564796
1.708949658651614E12,3.0652173913043477,-6.206521739130435,4.4021739130434785,14.529479089913261,-1.885908470858153,12.643570619055108,482.4739351837558,600.6810683823905
1.7089496586711462E12,3.108695652173913,-6.163043478260869,4.369565217391305,14.539648239570647,-1.9151898521411255,12.624458387429522,482.4760988326191,600.6750101655734
1.7089496586906782E12,3.152173913043478,-6.173913043478261,4.391304347826087,14.55400044369703,-1.9128098383915226,12.641190605305507,482.47739702193707,600.6825829365948
1.7089496587102104E12,3.108695652173913,-6.184782608695652,4.413043478260869,14.569001742482394,-1.908194054149872,12.660807688332522,482.4772527786795,600.6540227715997
1.7089496587297427E12,3.141304347826087,-6.184782608695652,4.456521739130435,14.580180594942641,-1.9259359748287164,12.654244620113925,482.47739702193707,600.6633985833405
1.708949658749275E12,3.108695652173913,-6.184782608695652,4.467391304347826,14.568064161308309,-1.941874854788166,12.626189306520143,482.47451215678603,600.6598646235306
1.708949658768807E12,3.1304347826086953,-6.195652173913043,4.423913043478261,14.561428971460936,-1.9146850007396932,12.646743970721243,482.4768921705356,600.6527967039104
1.708949658788339E12,3.108695652173913,-6.130434782608695,4.423913043478261,14.580396959828969,-1.9377639219479459,12.642633037881023,482.4769642921644,600.6524360957666
1.7089496588078713E12,3.141304347826087,-6.119565217391304,4.456521739130435,14.573401161837717,-1.9160553116864332,12.657345850151284,482.47790187333845,600.634910539974
1.7089496588274036E12,3.141304347826087,-6.119565217391304,4.456521739130435,14.578882405624677,-1.9353839081983448,12.643498497426332,482.4775412651946,600.6388772295568
1.7089496588469358E12,3.1304347826086953,-6.141304347826087,4.467391304347826,14.58241636543469,-1.917497744261949,12.664918621172742,482.47761338682335,600.6310880936489
1.7089496588664678E12,3.119565217391304,-6.130434782608695,4.456521739130435,14.592801879978405,-1.9584628294065975,12.634339050571807,482.4807146168607,600.6257510931196
1.708949658886E12,3.119565217391304,-6.108695652173913,4.478260869565217,14.586960028047566,-1.950385206983709,12.636574821063856,482.48345523875423,600.6255347282332
1.7089496589055322E12,3.108695652173913,-6.130434782608695,4.532608695652174,14.606144381301926,-1.9462021525147133,12.659942228787212,482.48374372526933,600.6209910656204
1.7089496589250645E12,3.108695652173913,-6.173913043478261,4.521739130434782,14.607658935506217,-1.9413700033867354,12.666288932119482,482.48432069829954,600.6140673892579
1.7089496589445967E12,3.1304347826086953,-6.130434782608695,4.521739130434782,14.605783773158047,-1.9725265470178766,12.63325722614017,482.48547464435995,600.6178177139542
1.7089496589641287E12,3.1304347826086953,-6.108695652173913,4.5,14.619342639367897,-1.9473560985751277,12.67198654079277,482.48634010390526,600.6335402290273
1.708949658983661E12,3.0978260869565215,-6.119565217391304,4.532608695652174,14.647253709704128,-1.9483658013779888,12.698887908326139,482.4864843471628,600.6225777414534
1.708949659003193E12,3.1304347826086953,-6.119565217391304,4.532608695652174,14.679996929168336,-1.969208952094192,12.710787977074144,482.48547464435995,600.623010471226
1.7089496590227253E12,3.0978260869565215,-6.108695652173913,4.565217391304348,14.678987226365475,-1.9268014343740258,12.75218579199145,482.4858352525038,600.5901951301331
1.7089496590422573E12,3.0978260869565215,-6.08695652173913,4.532608695652174,14.681150875228749,-1.9804599261832152,12.700690949045534,482.4892249690563,600.6014461042221
1.7089496590617896E12,3.0978260869565215,-6.076086956521739,4.478260869565217,14.636435465387759,-1.9672616681172457,12.669173797270513,482.4903067934879,600.613706781114
1.7089496590813218E12,3.0978260869565215,-6.08695652173913,4.532608695652174,14.62049658542831,-1.9786568854638205,12.641839699964489,482.4885037527685,600.617240740924
1.708949659100854E12,3.0652173913043477,-6.119565217391304,4.641304347826087,14.699758255452902,-1.9018473508176026,12.7979109046353,482.4900183069728,600.7901884067284
1.7089496591203862E12,3.119565217391304,-6.1521739130434785,4.565217391304348,15.160759706587758,-1.2078930387369446,13.952866667850813,482.48655646879155,600.6257510931196
1.7089496591399182E12,3.152173913043478,-6.119565217391304,4.608695652173913,14.49745708673681,-2.1537682001314415,12.343688886605369,482.49196559094975,600.7017672898493
1.7089496591594504E12,3.0869565217391304,-6.0978260869565215,4.3478260869565215,14.64891250716597,-2.3159697432481945,12.332942763917776,482.4906674016318,600.7446075373421
1.7089496591789827E12,3.0978260869565215,-6.021739130434782,4.510869565217392,14.634993032812243,-2.097801816201427,12.537191216610816,482.48929709068506,600.6652016240599
1.708949659198515E12,3.0760869565217392,-6.1521739130434785,4.8478260869565215,14.64876826390842,-1.9865902646291573,12.662177999279262,482.4886479960261,600.6065667398652
1.7089496592180469E12,3.0869565217391304,-6.108695652173913,4.4021739130434785,14.663913805951335,-1.9635834650496804,12.700330340901655,482.49138861791954,600.5928636303978
1.708949659237579E12,3.2065217391304346,-5.989130434782608,4.5,14.679131469623027,-1.9565876670584288,12.722543802564598,482.49167710443464,600.5841369133159
1.7089496592571113E12,3.1304347826086953,-6.021739130434782,4.565217391304348,14.687786065076121,-1.9583907077778235,12.729395357298298,482.4917492260634,600.5886084543
1.7089496592766436E12,3.119565217391304,-6.217391304347826,4.543478260869565,14.72377475783524,-1.964160438079885,12.759614319755356,482.49052315837423,600.6015182258509
1.7089496592961758E12,3.152173913043478,-6.195652173913043,4.641304347826087,14.759186477564155,-1.9529815856196393,12.806204891944516,482.4907395232606,600.598561239071
1.7089496593157078E12,3.1304347826086953,-6.119565217391304,4.576086956521739,14.785727236953646,-1.9689204655790888,12.816806771374557,482.4914607395483,600.6253904849757
1.70894965933524E12,3.141304347826087,-6.08695652173913,4.423913043478261,14.857704622471884,-2.0153667945106974,12.842337827961186,482.49521106424464,600.6459451491768
1.7089496593547722E12,3.108695652173913,-6.076086956521739,4.521739130434782,14.85280035171513,-1.9578858563763912,12.894914495338739,482.49679774007774,600.6348384183453
1.7089496593743044E12,3.0869565217391304,-6.08695652173913,4.565217391304348,14.782337520401184,-1.8710514153303404,12.911286105070843,482.49412923981305,600.6082976589558
1.7089496593938364E12,3.119565217391304,-6.141304347826087,4.565217391304348,14.726587501357496,-1.8549682921133392,12.871619209244157,482.49239832072243,600.5960369820639
1.7089496594133687E12,3.152173913043478,-6.130434782608695,4.5978260869565215,14.671991428374223,-1.914757122368469,12.757234306005754,482.49463409121444,600.5993545769876
1.708949659432901E12,3.141304347826087,-6.141304347826087,4.58695652173913,14.662904103148474,-1.9425239494471498,12.720380153701324,482.49138861791954,600.6038982396005
1.708949659452433E12,3.0869565217391304,-6.141304347826087,4.608695652173913,14.650571304627814,-1.938340894978154,12.71223040964966,482.4894413339426,600.5990660904725
1.7089496594719653E12,3.0978260869565215,-6.08695652173913,4.478260869565217,14.662904103148474,-1.9485100446355403,12.714394058512934,482.4903789151167,600.5889690624439
1.7089496594914973E12,3.108695652173913,-6.021739130434782,4.445652173913043,14.664562900610317,-1.9594004105806846,12.705162490029632,482.49052315837423,600.5916375627086
1.7089496595110295E12,3.0760869565217392,-6.054347826086956,4.380434782608695,14.66896231996564,-1.934879056796916,12.734083263168724,482.4907395232606,600.5829829672555
1.7089496595305618E12,3.0869565217391304,-6.065217391304348,4.489130434782608,14.673361739320963,-1.9401439356975487,12.733217803623415,482.489946185344,600.5832714537706
1.708949659550094E12,3.0978260869565215,-6.108695652173913,4.565217391304348,14.675958117956892,-1.9319941916458845,12.743963926311007,482.4903067934879,600.5711550201363
1.708949659569626E12,3.108695652173913,-6.184782608695652,4.510869565217392,14.662038643603164,-1.9309844888430234,12.731054154760141,482.4900183069728,600.5653131682054
1.7089496595891582E12,3.108695652173913,-6.173913043478261,4.510869565217392,14.659081656823357,-1.9216086771021708,12.737472979721186,482.4903067934879,600.5701453173334
1.7089496596086904E12,3.0978260869565215,-6.119565217391304,4.456521739130435,14.665284116898075,-1.9407930303565308,12.724491086541544,482.49081164488933,600.5637986140011
1.7089496596282227E12,3.108695652173913,-6.141304347826087,4.391304347826087,14.666654427844815,-1.951034301642693,12.715620126202122,482.4890807257987,600.5666113575234
1.708949659647755E12,3.108695652173913,-6.130434782608695,4.369565217391305,14.672784766290757,-1.9412978817579614,12.731486884532796,482.4890807257987,600.5605531407062
1.7089496596672869E12,3.0869565217391304,-6.130434782608695,4.456521739130435,14.653095561634967,-1.9382687733493782,12.714826788285588,482.49045103674547,600.5511052073366
1.708949659686819E12,3.119565217391304,-6.173913043478261,4.434782608695652,14.658648927050702,-1.9388457463795845,12.719803180671118,482.4903067934879,600.5604810190774
1.7089496597063513E12,3.108695652173913,-6.173913043478261,4.391304347826087,14.64653249341637,-1.9274505290330097,12.71908196438336,482.49138861791954,600.5489415584733
1.7089496597258835E12,3.119565217391304,-6.163043478260869,4.33695652173913,14.65749498099029,-1.9374033138040687,12.720091667186221,482.4923261990936,600.5617070867667
1.7089496597454155E12,3.0978260869565215,-6.163043478260869,4.369565217391305,14.651220399286796,-1.9173535010043992,12.733866898282397,482.4914607395483,600.5591107081307
1.7089496597649478E12,3.0978260869565215,-6.184782608695652,4.369565217391305,14.641916709174719,-1.9164880414590897,12.72542866771563,482.4916049828059,600.5520427885107
1.70894965978448E12,3.0869565217391304,-6.195652173913043,4.358695652173913,14.649200993681074,-1.9333645025926245,12.71583649108845,482.4936243884116,600.5639428572587
1.7089496598040122E12,3.0978260869565215,-6.195652173913043,4.3478260869565215,14.646316128530042,-1.911944378846215,12.734371749683827,482.49283105049506,600.5538458292301
1.7089496598235444E12,3.108695652173913,-6.206521739130435,4.33695652173913,14.698532187763714,-1.9167044063454153,12.781827781418299,482.4915328611771,600.5777902099836
1.7089496598430764E12,3.0978260869565215,-6.206521739130435,4.326086956521739,14.705023134353535,-1.9105740678994731,12.794449066454062,482.49196559094975,600.5658180196069
1.7089496598626086E12,3.0978260869565215,-6.206521739130435,4.33695652173913,14.699037039165145,-1.9155504602850026,12.783486578880142,482.4970141049641,600.5632937625998
1.7089496598821409E12,3.0652173913043477,-6.206521739130435,4.293478260869565,14.683314524092022,-1.9004049182420868,12.782909605849936,482.4971583482216,600.554206437374
1.708949659901673E12,3.119565217391304,-6.195652173913043,4.271739130434782,14.638743357508584,-1.928027502063216,12.710715855445368,482.4977353212518,600.5643034654025
1.7089496599212053E12,3.0869565217391304,-6.173913043478261,4.25,14.62237174777648,-1.8925436607055275,12.729828087070953,482.4970141049641,600.5530524913136
1.7089496599407373E12,3.0652173913043477,-6.173913043478261,4.282608695652174,14.681150875228749,-1.8466021831753476,12.834548692053401,482.4980959293957,600.7043636684851
1.7089496599602695E12,3.0760869565217392,-6.217391304347826,4.369565217391305,15.106019390346932,-1.1303622878029689,13.975657102543963,482.49578803727485,600.4257578165243
1.7089496599798018E12,3.108695652173913,-6.239130434782608,4.282608695652174,14.491543113177196,-1.958246464520272,12.533296648656924,482.50062018640284,600.5626446679407
1.708949659999334E12,3.1304347826086953,-6.173913043478261,3.760869565217391,14.662255008489492,-2.1260013730527607,12.536253635436731,482.49723046985036,600.6734956113692
1.708949660018866E12,2.858695652173913,-6.108695652173913,4.619565217391305,14.655475575384568,-1.9261523397150455,12.729323235669522,482.4975910779943,600.5785835479002
1.7089496600383982E12,3.1304347826086953,-6.4021739130434785,4.315217391304348,14.665428360155627,-1.9028570536204636,12.762571306535163,482.4964371319339,600.554494923889
1.7089496600579304E12,3.0652173913043477,-6.271739130434782,4.195652173913043,14.675669631441789,-1.8915339579026647,12.784135673539124,482.49650925356264,600.5219680693112
1.7089496600774626E12,3.152173913043478,-6.065217391304348,4.206521739130435,14.671414455344017,-1.871195658587892,12.800218796756125,482.49607652378995,600.5120874061689
1.7089496600969949E12,3.0543478260869565,-6.130434782608695,4.282608695652174,14.702426755717607,-1.8857642276006015,12.816662528117005,482.49723046985036,600.5242759614321
1.7089496601165269E12,3.032608695652174,-6.304347826086956,4.228260869565217,14.716490473328886,-1.8664356310886898,12.850054842240196,482.49751895636547,600.5436766795727
1.708949660136059E12,3.0869565217391304,-6.271739130434782,4.326086956521739,14.761350126427429,-1.8820139029042604,12.879336223523168,482.49311953701016,600.5624283030544
1.7089496601555913E12,3.0978260869565215,-6.271739130434782,4.282608695652174,14.803613400890042,-1.9100692164980426,12.893544184391999,482.495427429131,600.5990660904725
1.7089496601751235E12,3.0978260869565215,-6.25,4.184782608695652,14.834842066149958,-1.922257771761151,12.912584294388807,482.4984565375396,600.6548161095162
1.7089496601946555E12,3.0760869565217392,-6.239130434782608,4.217391304347826,14.8272692951285,-1.874296888625251,12.95297240650325,482.49622076704753,600.6393099593294
1.7089496602141877E12,3.0760869565217392,-6.228260869565217,4.228260869565217,14.775846573811362,-1.810108639014798,12.965737934796564,482.49254256397995,600.6010133744495
1.70894966023372E12,3.0760869565217392,-6.195652173913043,4.228260869565217,14.683747253864677,-1.7740478246269014,12.909699429237776,482.4927589288663,600.5671162089249
1.7089496602532522E12,3.0978260869565215,-6.184782608695652,4.239130434782608,14.659153778452133,-1.8072958954925422,12.85185788295959,482.4931916586389,600.566106506122
1.7089496602727844E12,3.0869565217391304,-6.173913043478261,4.260869565217392,14.656485278187429,-1.8431403449941097,12.813344933193319,482.4956437940173,600.5597598027897
1.7089496602923164E12,3.0543478260869565,-6.206521739130435,4.228260869565217,14.691608511401238,-1.8768932672611793,12.814715244140059,482.49412923981305,600.5492300449885
1.7089496603118486E12,3.108695652173913,-6.228260869565217,4.293478260869565,14.705383742497414,-1.8847545247977404,12.820629217699674,482.49283105049506,600.5727416959694
1.7089496603313809E12,3.0869565217391304,-6.195652173913043,4.217391304347826,14.711730445829684,-1.8823745110481394,12.829355934781544,482.4953553075022,600.5610579921076
1.708949660350913E12,3.0217391304347827,-6.217391304347826,4.260869565217392,14.733799664235075,-1.8983855126363647,12.83541415159871,482.4951389426159,600.5622840597969
1.708949660370445E12,3.0543478260869565,-6.228260869565217,4.25,14.738992421506932,-1.8711235369591162,12.867868884547816,482.49549955075975,600.5480039772992
1.7089496603899773E12,3.0543478260869565,-6.217391304347826,4.315217391304348,14.747863381846356,-1.8798502540409885,12.868013127805368,482.4936243884116,600.5389166520735
1.7089496604095095E12,3.0543478260869565,-6.228260869565217,4.239130434782608,14.752334922830455,-1.893769728394716,12.858565194435739,482.49751895636547,600.5488694368446
1.7089496604290417E12,3.0652173913043477,-6.271739130434782,4.271739130434782,14.7495221793082,-1.8972315665759538,12.852290612732245,482.49557167238856,600.5448306256332
1.708949660448574E12,3.0760869565217392,-6.239130434782608,4.260869565217392,14.743968813892463,-1.8918945660465454,12.852074247845918,482.495427429131,600.554494923889
1.708949660468106E12,3.043478260869565,-6.206521739130435,4.282608695652174,14.748007625103908,-1.897159444947178,12.85084818015673,482.49737471310794,600.5400705981339
1.7089496604876382E12,3.043478260869565,-6.195652173913043,4.260869565217392,14.750459760482284,-1.9075449594908918,12.842914800991393,482.49405711818423,600.55737978904
1.7089496605071704E12,3.0652173913043477,-6.217391304347826,4.239130434782608,14.750820368626163,-1.9029291752492412,12.847891193376922,482.49398499655547,600.5518264236243
1.7089496605267026E12,3.032608695652174,-6.228260869565217,4.228260869565217,14.74555548972553,-1.926657191116476,12.818898298609055,482.4962928886763,600.5482203421856
1.7089496605462346E12,3.0217391304347827,-6.228260869565217,4.25,14.748800963020441,-1.9143965142245918,12.83440444879585,482.4975910779943,600.5419457604821
1.7089496605657668E12,3.0543478260869565,-6.217391304347826,4.217391304347826,14.758321018018846,-1.9158389468001076,12.842482071218738,482.49679774007774,600.5338681380592
1.708949660585299E12,3.043478260869565,-6.206521739130435,4.195652173913043,14.745699732983082,-1.9178583524058297,12.827841380577253,482.4999710917439,600.5509609640791
1.7089496606048313E12,3.0543478260869565,-6.206521739130435,4.206521739130435,14.74591609786941,-1.902640688734138,12.843275409135272,482.49881714568346,600.5495185315035
1.7089496606243635E12,3.043478260869565,-6.217391304347826,4.206521739130435,14.754354328436177,-1.9138195411943855,12.840534787241792,482.49766319962305,600.5428833416562
1.7089496606438955E12,3.010869565217391,-6.260869565217391,4.239130434782608,14.756445855670675,-1.917065014489296,12.839380841181379,482.49679774007774,600.5407918144217
1.7089496606634277E12,3.0652173913043477,-6.260869565217391,4.141304347826087,14.753488868890868,-1.8426354935926792,12.910853375298188,482.49586015890367,600.527521434727
1.70894966068296E12,3.0652173913043477,-6.260869565217391,4.228260869565217,14.802170968314526,-1.9122328653613163,12.88993810295321,482.4971583482216,600.5438209228303
1.7089496607024922E12,3.0543478260869565,-6.260869565217391,4.260869565217392,14.80945525282088,-1.8782635782079193,12.931191674612961,482.4953553075022,600.5166310687817
1.7089496607220244E12,3.0760869565217392,-6.293478260869565,4.228260869565217,14.820489862023576,-1.9279553804344385,12.892534481589138,482.4971583482216,600.5343008678318
1.7089496607415564E12,3.108695652173913,-6.271739130434782,4.130434782608695,14.770365330024402,-1.9324269214185392,12.837938408605863,482.4981680510245,600.5464173014661
1.7089496607610886E12,3.0652173913043477,-6.195652173913043,4.228260869565217,14.74591609786941,-1.9269456776315792,12.81897042023783,482.5008365512892,600.5482203421856
1.7089496607806208E12,3.0652173913043477,-6.173913043478261,4.282608695652174,14.738126961961623,-1.8921830525616468,12.845943909399976,482.49723046985036,600.6223613765671
1.708949660800153E12,3.0760869565217392,-6.206521739130435,4.293478260869565,15.380658552725144,-1.2532575432369164,14.127401009488228,482.49434560469933,600.5782950613851
1.708949660819685E12,3.108695652173913,-6.195652173913043,4.228260869565217,14.772745343774004,-1.7416652133065718,13.031080130467432,482.50249534875104,600.3994334220212
1.7089496608392173E12,3.119565217391304,-6.141304347826087,4.0978260869565215,14.759402842450482,-2.3455396110462683,12.413863231404214,482.5021347406071,600.6538785283421
1.7089496608587495E12,3.141304347826087,-6.076086956521739,4.358695652173913,14.781976912257305,-2.036354188484454,12.74562272377285,482.50689476810635,600.593440603428
1.7089496608782817E12,2.9565217391304346,-6.25,4.1521739130434785,14.791352723998157,-2.005918861141069,12.785433862857088,482.5076159843941,600.568991371273
1.708949660897814E12,3.032608695652174,-6.271739130434782,4.3478260869565215,14.819119551076836,-1.9808205343270942,12.838299016749742,482.50985175488614,600.5527640047984
1.708949660917346E12,3.0217391304347827,-6.0978260869565215,4.293478260869565,14.82813475467381,-1.9842102508795563,12.843924503794254,482.5078323492804,600.557091302525
1.7089496609368782E12,3.0978260869565215,-6.195652173913043,4.239130434782608,14.847246986299394,-1.9828399399328163,12.864407046366578,482.5030002001524,600.5700731957046
1.7089496609564104E12,3.0543478260869565,-6.239130434782608,4.184782608695652,14.8773217054989,-2.004837036709434,12.872484668789467,482.5043705110992,600.5700010740759
1.7089496609759426E12,3.108695652173913,-6.282608695652174,4.25,14.900833356479808,-2.00281763110371,12.898015725376098,482.5062456734474,600.5851466161188
1.7089496609954746E12,3.108695652173913,-6.326086956521739,4.293478260869565,14.945043914919367,-2.0321711340154565,12.91287278090391,482.5076159843941,600.629140809672
1.7089496610150068E12,3.0869565217391304,-6.293478260869565,4.228260869565217,14.976705309951939,-2.0365705533707796,12.940134756581159,482.5072553762502,600.6515706362213
1.708949661034539E12,3.0869565217391304,-6.228260869565217,4.206521739130435,15.01370370551392,-2.013491632162527,13.000212073351394,482.5133135930674,600.650705176676
1.7089496610540713E12,3.0760869565217392,-6.173913043478261,4.239130434782608,14.965814944006794,-1.948365801377987,13.017449142628807,482.51057297117393,600.6232989577412
1.7089496610736035E12,3.043478260869565,-6.173913043478261,4.228260869565217,14.871624096825613,-1.9159110684288834,12.95571302839673,482.5136020795825,600.5982006309272
1.7089496610931355E12,3.0543478260869565,-6.163043478260869,4.184782608695652,14.832534174029133,-1.9626458838755951,12.869888290153538,482.51252025515083,600.5765641422945
1.7089496611126677E12,3.0760869565217392,-6.173913043478261,4.217391304347826,14.805127955094333,-1.9622131541029404,12.842914800991393,482.5116547956055,600.5635822491148
1.7089496611322E12,3.0217391304347827,-6.260869565217391,4.282608695652174,14.806426144412297,-1.9895472514089647,12.816878893003333,482.51374632284006,600.5711550201363
1.7089496611517322E12,2.9891304347826084,-6.260869565217391,4.304347826086956,14.799502468049822,-1.9834890345917984,12.816013433458023,482.51432329587027,600.5801702237333
1.7089496611712642E12,3.108695652173913,-6.239130434782608,4.184782608695652,14.82762990327238,-1.9988509415210416,12.828778961751338,482.5174966475364,600.5762035341506
1.7089496611907964E12,2.9565217391304346,-6.184782608695652,4.326086956521739,14.810176469108638,-1.977430817774632,12.832745651334006,482.5177851340515,600.5718041147952
1.7089496612103286E12,3.0652173913043477,-6.25,4.195652173913043,14.825610497666657,-1.9755556554264615,12.850054842240196,482.5176408907939,600.5800981021044
1.7089496612298608E12,3.0543478260869565,-6.260869565217391,4.293478260869565,14.830154160279532,-1.9700744116395015,12.86007974864003,482.5182899854529,600.5681980333565
1.708949661249393E12,3.0869565217391304,-6.228260869565217,4.304347826086956,14.841621499254883,-1.9777193042897352,12.863902194965148,482.52023726942986,600.5691356145305
1.708949661268925E12,3.0543478260869565,-6.239130434782608,4.282608695652174,14.830803254938514,-1.9847872239097626,12.846016031028752,482.52261728317944,600.5625725463119
1.7089496612884573E12,3.032608695652174,-6.217391304347826,4.315217391304348,14.840251188308143,-1.9893308865226373,12.850920301785505,482.5228336480658,600.5556488699494
1.7089496613079895E12,3.0543478260869565,-6.228260869565217,4.315217391304348,14.840828161338349,-1.978801128721372,12.862027032616977,482.5273051890499,600.5495185315035
1.7089496613275217E12,3.0543478260869565,-6.217391304347826,4.282608695652174,14.838015417816093,-1.99322545447653,12.844789963339563,482.5275215539362,600.549374288246
1.7089496613470537E12,3.0652173913043477,-6.184782608695652,4.271739130434782,14.843352418345502,-2.0026733878461584,12.840679030499343,482.5255742699593,600.5539900724876
1.708949661366586E12,3.0543478260869565,-6.184782608695652,4.315217391304348,14.826548078840743,-2.0098855507237374,12.816662528117005,482.5257906348456,600.5470663961252
1.7089496613861182E12,3.043478260869565,-6.173913043478261,4.326086956521739,14.839746336906712,-2.014140726821509,12.825605610085203,482.52348274272475,600.5478597340417
1.7089496614056504E12,3.0217391304347827,-6.163043478260869,4.271739130434782,14.84508333743612,-2.020054700381124,12.825028637054997,482.5204536343162,600.5348057192333
1.7089496614251826E12,3.043478260869565,-6.141304347826087,4.358695652173913,14.84508333743612,-2.0190449975782627,12.826038339857858,482.5219681885205,600.5288917456737
1.7089496614447146E12,3.0543478260869565,-6.228260869565217,4.326086956521739,14.848400932359807,-2.0432057432181523,12.805195189141655,482.5224730399219,600.5455518419209
1.7089496614642468E12,3.0652173913043477,-6.184782608695652,4.326086956521739,14.840683918080797,-2.0279880795464607,12.812695838534337,482.52333849946723,600.5405754495354
1.708949661483779E12,3.0543478260869565,-6.184782608695652,4.3478260869565215,14.841116647853452,-2.0133473889049753,12.827769258948477,482.5239875941262,600.5422342469972
1.7089496615033113E12,3.0869565217391304,-6.206521739130435,4.33695652173913,14.853954297775543,-1.9735362498207376,12.880418047954805,482.52333849946723,600.5291802321888
1.7089496615228433E12,3.108695652173913,-6.195652173913043,4.293478260869565,14.89412604500366,-2.0183959029192806,12.875730142084379,482.52211243177805,600.5482924638144
1.7089496615423755E12,3.0869565217391304,-6.184782608695652,4.3478260869565215,14.889221774246906,-1.9997885226951269,12.889433251551779,482.52204031014924,600.5240595965457
1.7089496615619077E12,3.0652173913043477,-6.173913043478261,4.380434782608695,14.890303598678543,-2.00555825299719,12.884745345681353,482.52333849946723,600.5007643104511
1.70894966158144E12,3.0543478260869565,-6.195652173913043,4.3478260869565215,14.855180365464731,-1.9835611562205742,12.871619209244157,482.5264397295046,600.5185783527587
1.7089496616009722E12,3.0760869565217392,-6.173913043478261,4.315217391304348,14.854747635692076,-2.0626064613588397,12.792141174333237,482.52773791882254,600.5318487324535
1.7089496616205042E12,3.0869565217391304,-6.141304347826087,4.391304347826087,14.818686821304182,-2.014501334965388,12.804185486338794,482.5309112704887,600.5663949926371
1.7089496616400364E12,3.0652173913043477,-6.1521739130434785,4.4021739130434785,15.017454030210262,-1.8737199155950446,13.143734114615217,482.5263676078758,600.7245577245424
1.7089496616595686E12,3.0652173913043477,-6.173913043478261,4.33695652173913,14.988389013813618,-1.6141541736309737,13.374234840182645,482.5319930949203,600.4016691925132
1.7089496616791008E12,3.0543478260869565,-6.1521739130434785,4.434782608695652,14.747719138588804,-2.3611900044906147,12.38652913409819,482.52744943230744,600.6538785283421
1.708949661698633E12,3.0869565217391304,-6.163043478260869,3.902173913043478,14.854098541033094,-2.24630024985078,12.607798291182315,482.5305506623448,600.6248135119455
1.708949661718165E12,2.967391304347826,-6.065217391304348,4.6521739130434785,14.84919427027634,-2.100903046238786,12.748291224037555,482.53062278397357,600.5604810190774
1.7089496617376973E12,3.032608695652174,-6.195652173913043,4.5978260869565215,14.84955487842022,-2.0812859632117693,12.76826891520845,482.53357977075336,600.5361039085512
1.7089496617572295E12,3.141304347826087,-6.1521739130434785,4.032608695652174,14.87357138080256,-2.061019785525774,12.812551595276785,482.5323537030642,600.5274493130981
1.7089496617767617E12,3.0869565217391304,-6.021739130434782,4.315217391304348,14.87133561031051,-2.0341184179924046,12.837217192318105,482.53430098704115,600.5168474336681
1.7089496617962937E12,3.043478260869565,-6.108695652173913,4.304347826086956,14.90148245113879,-2.0516439737849215,12.849838477353869,482.53401250052605,600.5392772602174
1.708949661815826E12,3.0543478260869565,-6.282608695652174,4.271739130434782,14.926580777952765,-2.055971271511469,12.870609506441296,482.5323537030642,600.5324978271125
1.7089496618353582E12,3.0760869565217392,-6.173913043478261,4.33695652173913,14.982547161882778,-2.083449612075043,12.899097549807735,482.53213733817785,600.5602646541911
1.7089496618548904E12,3.0760869565217392,-6.173913043478261,4.25,15.009664894302476,-2.0870556935138342,12.922609200788642,482.53047854071605,600.5625725463119
1.7089496618744226E12,3.0543478260869565,-6.173913043478261,4.271739130434782,15.037575964638707,-2.085396896051991,12.952179068586716,482.5314161218901,600.562211938168
1.7089496618939546E12,3.032608695652174,-6.130434782608695,4.271739130434782,15.017454030210262,-2.0143570917078364,13.003096938502425,482.53343552749584,600.5516821803668
1.7089496619134868E12,3.0543478260869565,-6.173913043478261,4.282608695652174,14.95579003760696,-1.9570203968310818,12.998769640775878,482.53343552749584,600.53970998999
1.708949661933019E12,3.0543478260869565,-6.173913043478261,4.293478260869565,14.87321077265868,-1.9642325597086625,12.908978212950018,482.5286754999966,600.5268723400679
1.7089496619525513E12,3.0543478260869565,-6.217391304347826,4.326086956521739,14.860012514592709,-2.0267620118572722,12.833250502735437,482.52961308117074,600.5242038398032
1.7089496619720833E12,3.043478260869565,-6.271739130434782,4.358695652173913,14.8591470550474,-2.0187565110631596,12.84039054398424,482.52463668878517,600.5206698799932
1.7089496619916155E12,3.032608695652174,-6.195652173913043,4.391304347826087,14.853737932889215,-2.035344485681591,12.818393447207624,482.52405971575496,600.5084813247302
1.7089496620111477E12,3.1304347826086953,-6.1521739130434785,4.239130434782608,14.861310703910673,-2.0170977136013164,12.844212990309357,482.523410621096,600.5123037710553
1.70894966203068E12,3.043478260869565,-6.163043478260869,4.206521739130435,14.854387027548198,-2.0266898902284964,12.827697137319701,482.5210306073464,600.5191553257889
1.7089496620502122E12,3.0869565217391304,-6.206521739130435,4.141304347826087,14.868378623530702,-2.0060631043986223,12.86231551913208,482.5213190938615,600.5149001496911
1.7089496620697441E12,3.0978260869565215,-6.184782608695652,4.293478260869565,14.878403529930537,-2.0094528209510845,12.868950708979453,482.519876661286,600.5112940682524
1.7089496620892764E12,3.0652173913043477,-6.228260869565217,4.293478260869565,14.875013813378075,-2.0067121990576045,12.86830161432047,482.5195881747709,600.5050194865489
1.7089496621088086E12,3.0978260869565215,-6.271739130434782,4.282608695652174,14.883812652088722,-2.013347388904977,12.870465263183744,482.5169196745062,600.5148280280624
1.7089496621283408E12,3.0978260869565215,-6.239130434782608,4.304347826086956,14.861599190425776,-2.0044043069367774,12.857194883488999,482.51612633658965,600.4996824860194
1.7089496621478728E12,3.0869565217391304,-6.228260869565217,4.184782608695652,14.86772952887172,-1.9989230631498192,12.868806465721901,482.5147560256429,600.5019182565115
1.708949662167405E12,3.0760869565217392,-6.195652173913043,4.206521739130435,14.869893177734994,-2.011400104928031,12.858493072806963,482.5141069309839,600.4934800259448
1.7089496621869373E12,3.0652173913043477,-6.184782608695652,4.228260869565217,14.869244083076012,-2.0095249425798603,12.859719140496152,482.51316934980986,600.4949224585203
1.7089496622064695E12,3.0760869565217392,-6.184782608695652,4.228260869565217,14.867585285614169,-2.0107510102690487,12.85683427534512,482.5154772419307,600.4939127557174
1.7089496622260017E12,3.0760869565217392,-6.195652173913043,4.217391304347826,14.859507663191279,-2.0108231318978227,12.848684531293456,482.51374632284006,600.4833108762874
1.7089496622455337E12,3.0652173913043477,-6.217391304347826,4.206521739130435,14.859219176676175,-2.0082267532618943,12.850992423414281,482.51338571469614,600.4970861073836
1.708949662265066E12,3.0978260869565215,-6.206521739130435,4.184782608695652,14.869244083076012,-2.012770415874771,12.856473667201241,482.5133135930674,600.4893690931045
1.7089496622845981E12,3.0652173913043477,-6.228260869565217,4.163043478260869,14.873355015916232,-2.014789821480493,12.858565194435739,482.5154772419307,600.4923260798844
1.7089496623041304E12,3.0760869565217392,-6.239130434782608,4.195652173913043,14.855901581752489,-1.9958218331124584,12.86007974864003,482.51453966075655,600.4778296325004
1.7089496623236624E12,3.0869565217391304,-6.25,4.206521739130435,14.867080434212738,-1.9621410324741646,12.904939401738574,482.51569360681697,600.476026591781
1.7089496623431946E12,3.0978260869565215,-6.25,4.228260869565217,14.899174559017965,-1.9786568854638205,12.920517673554144,482.5141790526127,600.4784066055306
1.7089496623627268E12,3.108695652173913,-6.25,4.163043478260869,14.893909680117332,-1.9475003418326793,12.946409338284653,482.51259237677965,600.4484761295887
1.708949662382259E12,3.0978260869565215,-6.25,4.184782608695652,14.904511559547373,-1.9843544941371078,12.920157065410265,482.5144675391278,600.4670835098128
1.7089496624017913E12,3.0978260869565215,-6.217391304347826,4.1521739130434785,14.87869201644564,-1.9720216956164478,12.906670320829193,482.51482814727166,600.48020964625
1.7089496624213232E12,3.0869565217391304,-6.206521739130435,4.119565217391305,14.86138282553945,-2.0250310927666533,12.836351732772796,482.51526087704434,600.4869169577262
1.7089496624408555E12,3.0978260869565215,-6.228260869565217,4.119565217391305,14.8478239593296,-1.9954612249685795,12.852362734361021,482.5135299579537,600.5294687187039
1.7089496624603877E12,3.0978260869565215,-6.228260869565217,4.228260869565217,15.10226906565059,-1.7613544179623624,13.340914647688228,482.5094190251135,600.679986557959
1.70894966247992E12,3.0760869565217392,-6.260869565217391,4.217391304347826,14.94944333427469,-1.5450616532637653,13.404381681010925,482.5112220658329,600.3033674124918
1.708949662499452E12,3.108695652173913,-6.271739130434782,4.076086956521739,14.830442646794635,-2.3670318564214536,12.463410790373182,482.5130251065523,600.6267607959225
1.7089496625189841E12,3.3260869565217392,-6.119565217391304,3.9456521739130435,14.899679410419395,-2.145834820966103,12.753844589453292,482.5093469034847,600.5807471967635
1.7089496625385164E12,2.9565217391304346,-6.206521739130435,4.510869565217392,14.907973397728611,-2.067871340259474,12.840102057469137,482.5070390113639,600.5289638673024
1.7089496625580486E12,3.0652173913043477,-6.445652173913043,4.239130434782608,14.920522561135598,-2.047316676058374,12.873205885077224,482.5075438627653,600.5166310687817
1.7089496625775808E12,3.2282608695652173,-6.184782608695652,3.934782608695652,14.914536465947208,-2.0359214587117975,12.87861500723541,482.5040099029553,600.5167031904106
1.7089496625971128E12,3.119565217391304,-6.076086956521739,4.195652173913043,14.951030010107758,-2.0355608505679186,12.915469159539839,482.4978795645094,600.5174965283271
1.708949662616645E12,3.043478260869565,-6.239130434782608,4.108695652173913,14.957953686470233,-2.0276274714025817,12.930326215067652,482.49751895636547,600.5208862448795
1.7089496626361772E12,3.0760869565217392,-6.33695652173913,4.173913043478261,14.993076919684045,-2.045225148823876,12.947851770860169,482.4953553075022,600.5339402596879
1.7089496626557095E12,3.119565217391304,-6.304347826086956,4.173913043478261,15.032455328995626,-2.078545341318291,12.953909987677335,482.49528318587346,600.5708665336211
1.7089496626752417E12,3.108695652173913,-6.293478260869565,4.0978260869565215,15.082796225881127,-2.1078267226012617,12.974969503279866,482.49679774007774,600.5909884680497
1.7089496626947737E12,3.0652173913043477,-6.282608695652174,4.08695652173913,15.103711498226106,-2.0750113815082756,13.02870011671783,482.49268680723753,600.6122643485385
1.708949662714306E12,3.0652173913043477,-6.260869565217391,4.076086956521739,15.058635480241238,-1.9984182117483869,13.06021726849285,482.4948504561008,600.5897624003604
1.7089496627338381E12,3.043478260869565,-6.206521739130435,4.076086956521739,14.970574971505997,-1.939783327553668,13.030791643952329,482.4913164962908,600.559327073017
1.7089496627533704E12,3.0543478260869565,-6.217391304347826,4.08695652173913,14.935019008519532,-1.9679828844050036,12.967036124114529,482.49283105049506,600.5384118006721
1.7089496627729023E12,3.0543478260869565,-6.228260869565217,4.119565217391305,14.901843059282669,-1.9714447225862415,12.930398336696427,482.4962928886763,600.5226171639702
1.7089496627924346E12,3.0652173913043477,-6.239130434782608,4.108695652173913,14.91056977636454,-1.9895472514089647,12.921022524955575,482.4936243884116,600.525862637265
1.7089496628119668E12,3.032608695652174,-6.260869565217391,4.163043478260869,14.915474047121293,-2.0027455094749342,12.912728537646359,482.4887922392836,600.5239874749169
1.708949662831499E12,3.0869565217391304,-6.271739130434782,4.08695652173913,14.922397723483769,-2.0019521715584006,12.920445551925368,482.4893692123138,600.5211747313947
1.7089496628510312E12,3.0217391304347827,-6.293478260869565,4.119565217391305,14.93299960291381,-1.9876720890607942,12.945327513853016,482.48929709068506,600.5120152845401
1.7089496628705632E12,3.0,-6.282608695652174,4.108695652173913,14.938625089958322,-1.9938024275067363,12.944822662451585,482.48872011765485,600.52204019094
1.7089496628900955E12,3.043478260869565,-6.239130434782608,4.163043478260869,14.93797599529934,-1.9646652894813172,12.973310705818022,482.4898019420865,600.5131692306005
1.7089496629096277E12,3.0652173913043477,-6.25,4.1521739130434785,14.939418427874855,-1.9857248050838479,12.953693622791008,482.48872011765485,600.5182898662437
1.70894966292916E12,3.043478260869565,-6.293478260869565,4.119565217391305,14.946486347494883,-1.9844987373946594,12.961987610100223,482.4930474153814,600.5190110825314
1.708949662948692E12,3.0543478260869565,-6.260869565217391,4.141304347826087,14.940211765791389,-1.9827678183040405,12.957443947487349,482.491893469321,600.5076158651848
1.708949662968224E12,3.0543478260869565,-6.271739130434782,4.0978260869565215,14.93249475151238,-2.0006539822404363,12.931840769271943,482.4924704423512,600.5098516356769
1.7089496629877563E12,3.043478260869565,-6.239130434782608,4.0978260869565215,14.927951088899505,-1.9905569542118258,12.937394134687679,482.4891528474275,600.503072202572
1.7089496630072886E12,3.043478260869565,-6.239130434782608,4.108695652173913,14.92340742628663,-1.99322545447653,12.9301819718101,482.49016255023037,600.4997546076482
1.7089496630268208E12,3.032608695652174,-6.271739130434782,4.08695652173913,14.93386506245912,-1.9985624550059384,12.935302607453181,482.48698919856423,600.4923982015131
1.7089496630463528E12,3.032608695652174,-6.260869565217391,4.108695652173913,14.938552968329546,-2.0153667945106974,12.923186173818848,482.4856188876175,600.496292769467
1.708949663065885E12,3.032608695652174,-6.25,4.119565217391305,14.944899671661815,-2.019694092237245,12.92520557942457,482.486412225534,600.5140346901459
1.7089496630854172E12,3.043478260869565,-6.25,4.08695652173913,14.947423928668968,-2.003466725762692,12.943957202906276,482.486412225534,600.5164868255242
1.7089496631049495E12,3.032608695652174,-6.260869565217391,4.08695652173913,14.960117335333507,-2.018972875949487,12.94114445938402,482.4845370631858,600.5219680693112
1.7089496631244814E12,3.032608695652174,-6.25,4.108695652173913,14.97995078324685,-2.0533748928755386,12.92657589037131,482.48605161739016,600.5133855954869
1.7089496631440137E12,3.0652173913043477,-6.25,4.0978260869565215,15.000793933963054,-2.059000379920052,12.941793554043002,482.48482554970093,600.5151165145775
1.708949663163546E12,3.043478260869565,-6.25,4.076086956521739,15.004039407257965,-2.0204153085250045,12.98362409873296,482.48569100924624,600.4950667017778
1.7089496631830781E12,3.0543478260869565,-6.271739130434782,4.108695652173913,15.073708900655378,-2.073496827303984,13.000212073351394,482.48626798227644,600.4963648910958
1.7089496632026104E12,3.0543478260869565,-6.293478260869565,4.119565217391305,15.074069508799257,-2.0512833656410407,13.022786143158216,482.48727768507933,600.4727811184861
1.7089496632221423E12,3.0869565217391304,-6.304347826086956,4.130434782608695,15.102341187279366,-2.1014078976402146,13.000933289639152,482.48713344182175,600.4820126869694
1.7089496632416746E12,3.0760869565217392,-6.293478260869565,4.108695652173913,15.078613171412131,-2.1055188304804364,12.973094340931695,482.4838158468981,600.4967976208684
1.7089496632612068E12,3.043478260869565,-6.228260869565217,4.0978260869565215,15.07796407675315,-2.147926348200601,12.930037728552549,482.4861958606477,600.4975909587849
1.708949663280739E12,3.0652173913043477,-6.239130434782608,4.08695652173913,15.047384506152214,-2.0831611255599416,12.964223380592273,482.48655646879155,600.5803144669908
1.708949663300271E12,3.0760869565217392,-6.25,4.1521739130434785,15.439437680177413,-1.7654653508025824,13.67397232937483,482.48504191458727,600.7139558451123
1.7089496633198032E12,3.043478260869565,-6.282608695652174,4.1521739130434785,15.054452425772242,-1.9535585586498456,13.100893867122396,482.49412923981305,600.3501022279385
1.7089496633393354E12,3.0652173913043477,-6.271739130434782,4.0978260869565215,15.080632577017854,-2.55966872688159,12.520963850136264,482.4890807257987,600.6030327800552
1.7089496633588677E12,3.2391304347826084,-6.195652173913043,4.163043478260869,15.103206646824676,-2.3397698807442033,12.763436766080472,482.4898019420865,600.5747611015751
1.7089496633784E12,2.902173913043478,-6.315217391304348,4.119565217391305,15.113736404625943,-2.2148552197045355,12.898881184921407,482.49016255023037,600.5139625685171
1.708949663397932E12,3.0543478260869565,-6.282608695652174,4.228260869565217,15.114097012769822,-2.2161534090224997,12.897943603747322,482.4879267797383,600.5042261486324
1.708949663417464E12,3.032608695652174,-6.1521739130434785,4.184782608695652,15.154485124884264,-2.209157611031248,12.945327513853016,482.48785465810954,600.4963648910958
1.7089496634369963E12,3.0978260869565215,-6.163043478260869,3.9891304347826084,15.145614164544842,-2.175260445506627,12.970353719038215,482.49016255023037,600.4931915394296
1.7089496634565286E12,3.0217391304347827,-6.1521739130434785,4.043478260869565,15.191195033931141,-2.1853574735352357,13.005837560395905,482.48785465810954,600.508192838215
1.7089496634760608E12,3.0217391304347827,-6.163043478260869,4.173913043478261,15.2148509281696,-2.2261783154223345,12.988672612747266,482.4888643609124,600.538123314157
1.7089496634955928E12,3.043478260869565,-6.260869565217391,4.195652173913043,15.254373580738735,-2.240097789776062,13.014275790962673,482.48432069829954,600.5808193183923
1.708949663515125E12,3.0543478260869565,-6.315217391304348,4.163043478260869,15.2923095574748,-2.2545942371599956,13.037715320314804,482.4885037527685,600.5966860767229
1.7089496635346572E12,3.0760869565217392,-6.271739130434782,4.1521739130434785,15.306589639972406,-2.2593542646591978,13.047235375313209,482.4858352525038,600.6113267673644
1.7089496635541895E12,3.043478260869565,-6.217391304347826,4.184782608695652,15.258484513578955,-2.1715822424390616,13.086902271139893,482.486412225534,600.5658180196069
1.7089496635737214E12,3.043478260869565,-6.195652173913043,4.239130434782608,15.195594453286464,-2.1240540890758144,13.07154036421065,482.48691707693547,600.5356711787786
1.7089496635932537E12,3.010869565217391,-6.184782608695652,4.358695652173913,15.13760866375073,-2.1657403905082226,12.971868273242507,482.4861237390189,600.5205256367357
1.708949663612786E12,3.0217391304347827,-6.25,4.326086956521739,15.11705399954963,-2.1617015792967784,12.95535242025285,482.48727768507933,600.5021346213979
1.708949663632318E12,3.043478260869565,-6.304347826086956,4.228260869565217,15.102701795423245,-2.195887231336501,12.906814564086744,482.4876382932232,600.513674082002
1.7089496636518503E12,3.0760869565217392,-6.25,4.315217391304348,15.112293972050425,-2.187304757512182,12.924989214538243,482.4890807257987,600.508192838215
1.7089496636713823E12,3.0978260869565215,-6.173913043478261,4.1521739130434785,15.106235755233259,-2.187376879140958,12.918858876092301,482.4893692123138,600.5179292580998
1.7089496636909146E12,2.9891304347826084,-6.184782608695652,4.25,15.115755810231665,-2.17417862107499,12.941577189156675,482.4906674016318,600.4983842967015
1.7089496637104468E12,3.032608695652174,-6.195652173913043,4.163043478260869,15.120515837730867,-2.170356174749873,12.950159662980994,482.48742192833686,600.492109714998
1.708949663729979E12,3.0543478260869565,-6.217391304347826,4.173913043478261,15.110995782732461,-2.1357377929374923,12.975257989794969,482.4931916586389,600.4902345526499
1.708949663749511E12,3.0543478260869565,-6.25,4.141304347826087,15.110274566444703,-2.1620621874406556,12.948212379004048,482.49355226678284,600.489513336362
1.7089496637690432E12,3.0760869565217392,-6.271739130434782,4.119565217391305,15.126501932919258,-2.1681925258865995,12.958309407032658,482.4913164962908,600.4841763358327
1.7089496637885754E12,3.010869565217391,-6.260869565217391,4.173913043478261,15.125059500343742,-2.175909540165609,12.949149960178133,482.4913164962908,600.4910278905663
1.7089496638081077E12,3.032608695652174,-6.260869565217391,4.1521739130434785,15.109913958300824,-2.156797308540023,12.953116649760801,482.4924704423512,600.5000430941634
1.70894966382764E12,3.043478260869565,-6.239130434782608,4.1521739130434785,15.116044296746768,-2.1763422699382637,12.939702026808504,482.49384075329795,600.4849696737492
1.7089496638471719E12,3.0652173913043477,-6.228260869565217,4.217391304347826,15.12304009473802,-2.1751162022490753,12.947923892488944,482.49016255023037,600.4776132676141
1.708949663866704E12,3.032608695652174,-6.228260869565217,4.195652173913043,15.117414607693508,-2.1878096089136143,12.929604998779894,482.49412923981305,600.5013412834813
1.7089496638862363E12,3.0543478260869565,-6.239130434782608,4.163043478260869,15.107029093149793,-2.174971958991522,12.93205713415827,482.49586015890367,600.4867727144687
1.7089496639057686E12,3.010869565217391,-6.195652173913043,4.163043478260869,15.111428512505116,-2.2091576110312463,12.90227090147387,482.48987406371526,600.4867005928398
1.7089496639253005E12,3.032608695652174,-6.239130434782608,4.184782608695652,15.110418809702255,-2.1902617442919894,12.920157065410265,482.4909558881469,600.4809308625378
1.7089496639448328E12,3.0217391304347827,-6.260869565217391,4.195652173913043,15.124482527313535,-2.1921369066401617,12.932345620673374,482.4903789151167,600.484392700719
1.708949663964365E12,3.043478260869565,-6.228260869565217,4.206521739130435,15.12664617617681,-2.191415690352404,12.935230485824405,482.4893692123138,600.4748726457206
1.7089496639838972E12,3.043478260869565,-6.239130434782608,4.228260869565217,15.110346688073479,-2.1733852831584546,12.936961404915024,482.4892249690563,600.4658574421236
1.7089496640034294E12,3.0652173913043477,-6.217391304347826,4.271739130434782,15.122246756821486,-2.185501716792789,12.936745040028697,482.4902346718591,600.4721320238272
1.7089496640229614E12,3.0760869565217392,-6.206521739130435,4.239130434782608,15.132992879509079,-2.2030993942140817,12.929893485294997,482.49081164488933,600.474439915948
1.7089496640424937E12,3.0217391304347827,-6.217391304347826,4.282608695652174,15.160759706587758,-2.1668222149398595,12.993937491647898,482.49110013140444,600.4742235510616
1.708949664062026E12,3.0217391304347827,-6.163043478260869,4.271739130434782,15.155494827687125,-2.1606197548651416,12.994875072821984,482.49239832072243,600.445807629324
1.708949664081558E12,3.0217391304347827,-6.173913043478261,4.271739130434782,15.165231247571857,-2.186872027739529,12.978359219832328,482.49254256397995,600.4448700481498
1.70894966410109E12,3.043478260869565,-6.184782608695652,4.239130434782608,15.137825028637057,-2.1650912958492405,12.972733732787816,482.49398499655547,600.4499185621642
1.7089496641206223E12,3.043478260869565,-6.1521739130434785,4.206521739130435,15.117991580723714,-2.196896934139364,12.92109464658435,482.4921098342073,600.4453027779225
1.7089496641401545E12,3.0652173913043477,-6.163043478260869,4.228260869565217,15.102557552165694,-2.1968248125105863,12.905732739655107,482.49355226678284,600.4864121063247
1.7089496641596868E12,3.0217391304347827,-6.173913043478261,4.315217391304348,15.262595446419175,-2.060731299010671,13.201864147408504,482.49052315837423,600.6452960545178
1.708949664179219E12,3.0217391304347827,-6.195652173913043,4.195652173913043,15.335943142884153,-1.7588301609552097,13.577112981928943,482.4942734830706,600.2914673437438
1.708949664198751E12,3.043478260869565,-6.173913043478261,4.260869565217392,15.010025502446355,-2.502981126663819,12.507044375782536,482.49052315837423,600.5586779783581
1.7089496642182832E12,3.1304347826086953,-6.130434782608695,3.684782608695652,15.127439514093343,-2.4126848474365303,12.714754666656813,482.4918213476922,600.5337960164304
1.7089496642378154E12,2.880434782608696,-6.032608695652174,4.554347826086956,15.135517136516231,-2.2706052387482227,12.864911897768009,482.4903067934879,600.4724205103422
1.7089496642573477E12,3.043478260869565,-6.282608695652174,4.510869565217392,15.13212741996377,-2.217812206484343,12.914315213479426,482.4929031721238,600.4504955351944
1.7089496642768796E12,3.1630434782608696,-6.163043478260869,3.967391304347826,15.142512934507483,-2.2204085851202713,12.922104349387212,482.4900183069728,600.4391724394766
1.7089496642964119E12,3.108695652173913,-6.065217391304348,4.228260869565217,15.160615463330206,-2.2223558690972176,12.938259594232989,482.48713344182175,600.4496300756491
1.708949664315944E12,3.032608695652174,-6.206521739130435,4.163043478260869,15.180953762644979,-2.236563829966048,12.94438993267893,482.4867007120491,600.459654982049
1.7089496643354763E12,3.043478260869565,-6.3478260869565215,4.173913043478261,15.195378088400137,-2.237717776026461,12.957660312373676,482.48569100924624,600.459654982049
1.7089496643550085E12,3.0869565217391304,-6.25,4.315217391304348,15.240454106385007,-2.2645470219310564,12.97590708445395,482.4842485766707,600.4894412147333
1.7089496643745405E12,3.119565217391304,-6.228260869565217,4.195652173913043,15.284664664824566,-2.3127963915820597,12.971868273242507,482.4838158468981,600.5108613384797
1.7089496643940728E12,3.108695652173913,-6.195652173913043,4.184782608695652,15.296708976830123,-2.308973945256943,12.98773503157318,482.4825897792089,600.5264396102953
1.708949664413605E12,3.0760869565217392,-6.141304347826087,4.217391304347826,15.281202826643328,-2.229135302202142,13.052067524441187,482.482878265724,600.5102122438208
1.7089496644331372E12,3.0217391304347827,-6.173913043478261,4.228260869565217,15.221558239645749,-2.179082891831742,13.042475347814007,482.48331099549665,600.4830223897723
1.7089496644526694E12,3.032608695652174,-6.206521739130435,4.163043478260869,15.13075710901703,-2.1997817992903954,12.930975309726634,482.4838158468981,600.4803538895076
1.7089496644722014E12,3.043478260869565,-6.206521739130435,4.184782608695652,15.115467323716562,-2.2380783841703398,12.877388939546222,482.4826619008377,600.4835272411736
1.7089496644917336E12,3.043478260869565,-6.260869565217391,4.163043478260869,15.08993626712993,-2.241828708866681,12.84810755826325,482.4823012926938,600.4829502681434
1.7089496645112659E12,3.010869565217391,-6.260869565217391,4.239130434782608,15.086762915463796,-2.278827104428661,12.807935811035135,482.4867007120491,600.4933357826872
1.708949664530798E12,3.0869565217391304,-6.239130434782608,4.173913043478261,15.084094415199091,-2.2669270356806557,12.817167379518436,482.489946185344,600.5106449735933
1.70894966455033E12,3.010869565217391,-6.239130434782608,4.184782608695652,15.095994483947097,-2.280846510034383,12.815147973912714,482.49052315837423,600.511077703366
1.7089496645698623E12,3.032608695652174,-6.293478260869565,4.119565217391305,15.089719902243603,-2.2772404285955936,12.81247947364801,482.49434560469933,600.5028558376856
1.7089496645893945E12,3.0760869565217392,-6.217391304347826,4.217391304347826,15.092099915993204,-2.272985252497822,12.819114663495382,482.4918213476922,600.5061734326093
1.7089496646089268E12,3.0869565217391304,-6.25,4.239130434782608,15.083589563797661,-2.2742834418157862,12.809306121981875,482.4944898479569,600.505307973064
1.708949664628459E12,3.0869565217391304,-6.282608695652174,4.195652173913043,15.06664098103535,-2.2776010367394726,12.789039944295878,482.49549955075975,600.5114383115099
1.708949664647991E12,3.0652173913043477,-6.239130434782608,4.217391304347826,15.061880953536148,-2.286760483593998,12.77512046994215,482.49434560469933,600.5045867567762
1.7089496646675232E12,3.0760869565217392,-6.195652173913043,4.130434782608695,15.053082114825502,-2.324984946845168,12.728097167980334,482.49665349682016,600.511077703366
1.7089496646870554E12,3.0869565217391304,-6.217391304347826,4.130434782608695,15.034402612972572,-2.307243026166324,12.727159586806248,482.49751895636547,600.5097795140481
1.7089496647065876E12,3.032608695652174,-6.217391304347826,4.1521739130434785,15.036133532063191,-2.3146715539302303,12.721461978132961,482.4998989701151,600.5078322300711
1.7089496647261196E12,3.043478260869565,-6.206521739130435,4.0978260869565215,15.013126732483714,-2.321595230292706,12.691531502191008,482.4980238077669,600.5020624997691
1.7089496647456519E12,3.043478260869565,-6.228260869565217,4.108695652173913,15.004039407257965,-2.310921229233889,12.693118178024076,482.4983844159108,600.5102122438208
1.708949664765184E12,3.0760869565217392,-6.217391304347826,4.108695652173913,14.99762058229692,-2.3160418648769703,12.68157871741995,482.5004759431453,600.5154050010926
1.7089496647847163E12,3.043478260869565,-6.260869565217391,4.130434782608695,14.991418122222202,-2.3197921895733113,12.67162593264889,482.4971583482216,600.5115825547675
1.7089496648042485E12,3.0543478260869565,-6.260869565217391,4.108695652173913,14.97634470180806,-2.3201527977171885,12.656191904090871,482.4978795645094,600.5252135426061
1.7089496648237805E12,3.0652173913043477,-6.271739130434782,4.1521739130434785,14.976488945065611,-2.3260667712768033,12.650422173788808,482.4988892673122,600.5274493130981
1.7089496648433127E12,3.0652173913043477,-6.282608695652174,4.130434782608695,14.958674902757991,-2.3296728527155928,12.629002050042399,482.4987450240547,600.5364645166951
1.708949664862845E12,3.043478260869565,-6.260869565217391,4.0978260869565215,14.960550065106162,-2.30385330961386,12.656696755492302,482.49665349682016,600.525862637265
1.7089496648823772E12,3.043478260869565,-6.271739130434782,4.054347826086956,14.973748323172131,-2.299021160485882,12.67472716268625,482.4977353212518,600.5229056504853
1.7089496649019092E12,3.0217391304347827,-6.260869565217391,4.0978260869565215,14.961199159765144,-2.287770186396859,12.673428973368285,482.4983844159108,600.5186504743875
1.7089496649214414E12,3.010869565217391,-6.239130434782608,4.108695652173913,14.977570769497248,-2.295270835789541,12.682299933707707,482.500259578259,600.5070388921546
1.7089496649409736E12,3.0,-6.25,4.076086956521739,14.94208692813956,-2.3057284719620306,12.636358456177529,482.503793538069,600.5359596652937
1.7089496649605059E12,2.9891304347826084,-6.25,4.065217391304348,14.908478249130042,-2.340491097031963,12.567987152098079,482.50386565969774,600.5398542332476
1.708949664980038E12,2.9891304347826084,-6.217391304347826,4.054347826086956,14.871407731939286,-2.320224919345966,12.55118281259332,482.5037214164402,600.5671883305536
1.70894966499957E12,3.010869565217391,-6.228260869565217,4.108695652173913,15.03425836971502,-2.1922811498977133,12.841977219817307,482.5015577675769,600.7557142681735
1.7089496650191023E12,3.0,-6.25,4.141304347826087,15.467709358657523,-1.6251166612048937,13.842592697452629,482.498961388941,600.4974467155274
1.7089496650386345E12,3.043478260869565,-6.271739130434782,4.119565217391305,14.78753027767304,-2.622991516946735,12.164538760726305,482.50206261897836,600.6428439191394
1.7089496650581667E12,3.108695652173913,-6.195652173913043,3.5978260869565215,14.877898678529107,-2.622342422287753,12.255556256241354,482.50422626784166,600.6550324744026
1.7089496650776987E12,2.782608695652174,-6.173913043478261,4.456521739130435,14.872850164514801,-2.3875865206225555,12.485263643892246,482.50062018640284,600.5615628435091
1.708949665097231E12,3.0760869565217392,-6.423913043478261,4.184782608695652,14.866503461182532,-2.369195505284729,12.497307955897803,482.50336080829635,600.5477154907842
1.7089496651167632E12,3.043478260869565,-6.25,4.010869565217392,14.871696218454389,-2.3689791403984,12.502717078055989,482.50220686223594,600.5609137488501
1.7089496651362954E12,3.0869565217391304,-6.054347826086956,4.021739130434782,14.87544654315073,-2.354194206499363,12.521252336651367,482.5001153350014,600.5512494505941
1.7089496651558276E12,2.9891304347826084,-6.195652173913043,4.0978260869565215,14.880350813907484,-2.3474868950232146,12.532863918884269,482.4964371319339,600.6010854960782
1.7089496651753596E12,3.0217391304347827,-6.3478260869565215,4.054347826086956,14.907973397728611,-2.368618532254521,12.53935486547409,482.4942734830706,600.6287802015281
1.7089496651948918E12,3.0543478260869565,-6.33695652173913,4.1521739130434785,14.928239575414608,-2.3872259124786748,12.541013662935933,482.4937686316691,600.6503445685321
1.708949665214424E12,3.0760869565217392,-6.3478260869565215,4.054347826086956,14.964444633060054,-2.4157139558451117,12.548730677214943,482.49196559094975,600.69347330254
1.7089496652339563E12,3.0217391304347827,-6.33695652173913,4.021739130434782,14.98269140514033,-2.4315085925470097,12.55118281259332,482.4931916586389,600.7099170339009
1.7089496652534885E12,3.032608695652174,-6.304347826086956,3.967391304347826,14.945116036548143,-2.3465493138491293,12.598566722699013,482.49283105049506,600.6955648297745
1.7089496652730205E12,3.0,-6.271739130434782,4.010869565217392,14.872633799628474,-2.2877701863968607,12.584863613231613,482.4929031721238,600.6757313818612
1.7089496652925527E12,2.9891304347826084,-6.260869565217391,4.054347826086956,14.782986615060166,-2.286327753821345,12.49665886123882,482.49398499655547,600.6367135806935
1.708949665312085E12,3.0217391304347827,-6.228260869565217,4.010869565217392,14.752479166088007,-2.3076757559389787,12.444803410149028,482.49340802352526,600.614355875773
1.7089496653316172E12,3.043478260869565,-6.228260869565217,4.043478260869565,14.748945206277993,-2.3296728527155945,12.419272353562398,482.4933359018965,600.6210631872491
1.7089496653511492E12,3.010869565217391,-6.228260869565217,4.032608695652174,14.728823271849546,-2.3448905163872844,12.383932755462261,482.4921819558361,600.6331796208834
1.7089496653706814E12,3.0652173913043477,-6.25,4.032608695652174,14.721322622456864,-2.3523911657799683,12.368931456676895,482.49614864541877,600.6279868636116
1.7089496653902136E12,3.0217391304347827,-6.25,4.043478260869565,14.699758255452902,-2.335298339760106,12.364459915692796,482.4892249690563,600.6295735394447
1.7089496654097458E12,3.0217391304347827,-6.282608695652174,4.032608695652174,14.695719444241458,-2.315248526960435,12.380470917281023,482.48958557720016,600.612120105281
1.708949665429278E12,3.032608695652174,-6.260869565217391,4.0978260869565215,14.68439634852366,-2.3105606210900103,12.373835727433649,482.48662859042037,600.6266886742936
1.70894966544881E12,3.0543478260869565,-6.271739130434782,4.08695652173913,14.678266010077717,-2.3235425142696524,12.354723495808065,482.4897298204577,600.6282753501267
1.7089496654683423E12,3.0217391304347827,-6.293478260869565,4.08695652173913,14.657350737732738,-2.316186108134522,12.341164629598216,482.4885037527685,600.6207025791052
1.7089496654878745E12,3.0652173913043477,-6.271739130434782,4.130434782608695,14.640113668455324,-2.312652148324508,12.327461520130816,482.4877825364808,600.6220007684232
1.7089496655074067E12,3.0543478260869565,-6.271739130434782,4.0978260869565215,14.632324532547539,-2.3228934196106703,12.309431112936869,482.48843163113975,600.6258232147484
1.7089496655269387E12,3.0978260869565215,-6.282608695652174,4.065217391304348,14.603043151264567,-2.324768581958839,12.278274569305728,482.48771041485196,600.624669268688
1.708949665546471E12,3.119565217391304,-6.293478260869565,4.08695652173913,14.59871585353802,-2.3348656099874496,12.26385024355057,482.4872055634506,600.6196207546736
1.7089496655660032E12,3.0869565217391304,-6.282608695652174,4.0978260869565215,14.57231933740608,-2.3177727839675875,12.254546553438493,482.4909558881469,600.6279868636116
1.7089496655855354E12,3.032608695652174,-6.315217391304348,4.076086956521739,14.575709053958542,-2.3393371509715504,12.236371902986992,482.4867007120491,600.6264723094073
1.7089496656050676E12,3.043478260869565,-6.293478260869565,4.054347826086956,14.55724591699194,-2.341212313319721,12.21603360367222,482.4856188876175,600.6439978651998
1.7089496656245996E12,3.0217391304347827,-6.25,4.043478260869565,14.544264023812298,-2.3403468537744114,12.203917170037887,482.48727768507933,600.6287802015281
1.7089496656441318E12,3.032608695652174,-6.25,4.076086956521739,14.542244618206576,-2.3289516364278366,12.21329298177874,482.4855467659887,600.6274098905814
1.708949665663664E12,3.0217391304347827,-6.239130434782608,4.076086956521739,14.51289111529483,-2.337389866994604,12.175501248300225,482.48511403621603,600.6364972158071
1.7089496656831963E12,3.010869565217391,-6.228260869565217,4.065217391304348,14.518300237453014,-2.347991746424645,12.170308491028369,482.4852582794736,600.6387329862991
1.7089496657027283E12,3.0543478260869565,-6.260869565217391,4.065217391304348,14.505534709159699,-2.342222016122582,12.163312693037117,482.48634010390526,600.6496233522444
1.7089496657222605E12,3.0217391304347827,-6.25,4.141304347826087,14.49471646484333,-2.321595230292706,12.173121234550624,482.4861958606477,600.6476760682674
1.7089496657417927E12,3.032608695652174,-6.260869565217391,4.108695652173913,14.508924425712161,-2.316186108134522,12.19273831757764,482.48576313087506,600.6505609334184
1.708949665761325E12,3.0,-6.239130434782608,4.141304347826087,14.515126885786879,-2.2995260118873144,12.215600873899565,482.48460918481464,600.6212074305067
1.7089496657808572E12,3.032608695652174,-6.184782608695652,4.1521739130434785,14.525873008474472,-2.325778284761702,12.20009472371277,482.48742192833686,600.6226498630822
1.7089496658003892E12,3.0217391304347827,-6.184782608695652,4.076086956521739,14.469762381286905,-2.326211014534355,12.14355136675255,482.48814314462464,600.6548161095162
1.7089496658199214E12,3.0217391304347827,-6.206521739130435,4.054347826086956,14.447981649396617,-2.3475590166519904,12.100422632744626,482.4889364825412,600.6520033659939
1.7089496658394536E12,3.032608695652174,-6.217391304347826,4.065217391304348,14.40081410417725,-2.3141667025287997,12.08664740164845,482.49268680723753,600.6936175457976
1.7089496658589858E12,3.0217391304347827,-6.239130434782608,4.130434782608695,14.65013857485516,-2.103643668132266,12.546494906722893,482.48814314462464,600.8707482660709
1.7089496658785178E12,3.0,-6.282608695652174,4.1521739130434785,14.51700204813505,-1.975699898684013,12.541302149451036,482.4956437940173,600.4920375933692
1.70894966589805E12,3.0,-6.326086956521739,4.206521739130435,14.351338666837057,-2.6805445767098153,11.670794090127242,482.4957159156461,600.7731677023372
1.7089496659175823E12,3.141304347826087,-6.25,3.7391304347826084,14.409468699630345,-2.6025089743744108,11.806959725255934,482.49881714568346,600.7534063760527
1.7089496659371145E12,2.782608695652174,-6.195652173913043,4.304347826086956,14.400958347434802,-2.379581019828441,12.021377327606361,482.4957159156461,600.6825108149661
1.7089496659566467E12,2.9891304347826084,-6.326086956521739,4.271739130434782,14.399371671601735,-2.3544105713856904,12.044961100216044,482.49614864541877,600.6567633934932
1.7089496659761787E12,3.032608695652174,-6.195652173913043,3.9891304347826084,14.406511712850538,-2.332918326010505,12.073593386840033,482.4942734830706,600.656186420463
1.708949665995711E12,3.0543478260869565,-6.130434782608695,4.076086956521739,14.418267538340992,-2.3368850155931735,12.081382522747818,482.49622076704753,600.6621003940226
1.7089496660152432E12,2.934782608695652,-6.217391304347826,4.119565217391305,14.434350661557993,-2.3347213667299,12.099629294828093,482.4939128749267,600.6693846785289
1.7089496660347754E12,2.9565217391304346,-6.326086956521739,4.163043478260869,14.452092582236837,-2.327797690367424,12.124294891869413,482.4930474153814,600.6760198683763
1.7089496660543074E12,2.9782608695652173,-6.33695652173913,4.206521739130435,14.500991046546824,-2.354915422787121,12.146075623759703,482.4885037527685,600.6904441941315
1.7089496660738396E12,2.9891304347826084,-6.326086956521739,4.141304347826087,14.528757873625503,-2.3709264243753463,12.157831449250157,482.4903789151167,600.7134509937109
1.7089496660933718E12,3.0,-6.271739130434782,4.065217391304348,14.548807686425173,-2.389605926228276,12.159201760196897,482.4867728336779,600.7308323062459
1.708949666112904E12,2.9782608695652173,-6.206521739130435,4.076086956521739,14.486422477534113,-2.2559645481067356,12.230457929427377,482.49268680723753,600.7055897361744
1.7089496661324363E12,2.967391304347826,-6.195652173913043,4.119565217391305,14.43680279693637,-2.2346886676178777,12.202114129318492,482.49138861791954,600.6829435447388
1.7089496661519683E12,2.967391304347826,-6.206521739130435,4.1521739130434785,14.351555031723384,-2.2348329108754292,12.116722120847955,482.4924704423512,600.6575567314097
1.7089496661715005E12,2.967391304347826,-6.228260869565217,4.1521739130434785,14.32234577206919,-2.276807698822939,12.04553807324625,482.4953553075022,600.6551767176601
1.7089496661910327E12,2.967391304347826,-6.239130434782608,4.184782608695652,14.308931149116892,-2.2844525914731726,12.02447855764372,482.49434560469933,600.6710434759907
1.708949666210565E12,2.934782608695652,-6.293478260869565,4.228260869565217,14.297535931770318,-2.275004658103544,12.022531273666774,482.4953553075022,600.6620282723937
1.7089496662300972E12,3.032608695652174,-6.228260869565217,4.08695652173913,14.286140714423743,-2.2607245756059378,12.025416138817805,482.4950668209871,600.659359772129
1.7089496662496292E12,2.9565217391304346,-6.195652173913043,4.141304347826087,14.307560838170152,-2.269884022460463,12.03767681570969,482.49434560469933,600.660657961447
1.7089496662691614E12,2.934782608695652,-6.206521739130435,4.130434782608695,14.29868987783073,-2.2574069806822514,12.041282897148479,482.49557167238856,600.6551045960313
1.7089496662886936E12,2.9891304347826084,-6.239130434782608,4.195652173913043,14.291766201468254,-2.2532960478420314,12.038470153626223,482.49578803727485,600.653590041827
1.7089496663082258E12,3.032608695652174,-6.260869565217391,4.130434782608695,14.301214134837883,-2.2535845343571346,12.047629600480748,482.4937686316691,600.6482530412976
1.7089496663277578E12,3.032608695652174,-6.25,4.206521739130435,14.293497120558873,-2.2563972778793904,12.037099842679483,482.49441772632815,600.6530130687968
1.70894966634729E12,3.0217391304347827,-6.217391304347826,4.195652173913043,14.282895241128832,-2.2467329796234345,12.036162261505398,482.49636501030506,600.64104087842
1.7089496663668223E12,3.010869565217391,-6.217391304347826,4.173913043478261,14.27214911844124,-2.262022764923902,12.010126353517338,482.4975910779943,600.6434930137984
1.7089496663863545E12,3.0,-6.217391304347826,4.163043478260869,14.261042387609768,-2.256108791364287,12.00493359624548,482.49614864541877,600.6270492824375
1.7089496664058867E12,2.9891304347826084,-6.195652173913043,4.184782608695652,14.270201834464293,-2.2771683069668196,11.993033527497474,482.49795168613815,600.6258232147484
1.7089496664254187E12,2.9891304347826084,-6.217391304347826,4.206521739130435,14.255489022194032,-2.26122942700737,11.994259595186662,482.4977353212518,600.627554133839
1.708949666444951E12,2.9891304347826084,-6.228260869565217,4.206521739130435,14.25397446798974,-2.2689464412863796,11.985028026703361,482.4975910779943,600.6319535531943
1.7089496664644832E12,3.032608695652174,-6.228260869565217,4.1521739130434785,14.24661806185461,-2.26122942700737,11.98538863484724,482.50263959200856,600.6273377689527
1.7089496664840154E12,3.010869565217391,-6.206521739130435,4.163043478260869,14.247411399771144,-2.270460995490671,11.976950404280473,482.4975910779943,600.6286359582706
1.7089496665035474E12,3.0,-6.217391304347826,4.184782608695652,14.233131317273536,-2.2471657093960893,11.985965607877446,482.49578803727485,600.6240922956578
1.7089496665230796E12,3.010869565217391,-6.228260869565217,4.184782608695652,14.232698587500881,-2.2618785216663504,11.97082006583453,482.4956437940173,600.63043899899
1.7089496665426118E12,3.0217391304347827,-6.217391304347826,4.195652173913043,14.234501628220276,-2.2563972778793904,11.978104350340885,482.49614864541877,600.6204140925902
1.708949666562144E12,3.0543478260869565,-6.217391304347826,4.184782608695652,14.24041560177989,-2.2708216036345483,11.969593998145342,482.49751895636547,600.6226498630822
1.7089496665816763E12,3.0,-6.228260869565217,4.163043478260869,14.236521033825998,-2.2481754121989503,11.988345621627047,482.49881714568346,600.6165916462651
1.7089496666012083E12,3.010869565217391,-6.195652173913043,4.184782608695652,14.265874536737746,-2.223942544930285,12.041931991807461,482.49679774007774,600.6219286467945
1.7089496666207405E12,3.043478260869565,-6.217391304347826,4.217391304347826,14.26356664461692,-2.228702572429487,12.034864072187434,482.49975472685753,600.6023115637674
1.7089496666402727E12,3.0217391304347827,-6.206521739130435,4.163043478260869,14.284626160219451,-2.246877222880986,12.037748937338465,482.49650925356264,600.5992824553589
1.708949666659805E12,3.0,-6.217391304347826,4.173913043478261,14.246473818597059,-2.2274765047402987,12.01899731385676,482.4948504561008,600.600220036533
1.708949666679337E12,3.0,-6.184782608695652,4.08695652173913,14.213297869360193,-2.2501226961758967,11.963175173184297,482.4957159156461,600.6119758620234
1.7089496666988691E12,3.032608695652174,-6.195652173913043,4.0978260869565215,14.193752907961954,-2.23944869511708,11.954304212844875,482.49405711818423,600.6320977964518
1.7089496667184014E12,3.0217391304347827,-6.206521739130435,4.195652173913043,14.330062786348199,-2.1453299695646724,12.184732816783526,482.4915328611771,600.8141327874819
1.7089496667379336E12,3.010869565217391,-6.25,4.217391304347826,14.510078371772574,-1.731279698762858,12.778798673009716,482.4936243884116,600.4539573733756
1.7089496667574658E12,3.043478260869565,-6.271739130434782,4.206521739130435,14.101725709644045,-2.5148090737830486,11.586916635860996,482.49283105049506,600.7076812634089
1.7089496667769978E12,3.0978260869565215,-6.228260869565217,3.652173913043478,14.213081504473866,-2.4555250949293477,11.757556409544518,482.4921819558361,600.6904441941315
1.70894966679653E12,2.8369565217391304,-6.141304347826087,4.380434782608695,14.21474030193571,-2.311353959006542,11.903386342929167,482.49196559094975,600.6445027166012
1.7089496668160623E12,3.010869565217391,-6.315217391304348,4.456521739130435,14.22123124852553,-2.2875538215105315,11.933677427014999,482.48987406371526,600.6132740513414
1.7089496668355945E12,3.0869565217391304,-6.173913043478261,3.902173913043478,14.238684682689271,-2.2709658468921,11.967718835797172,482.4893692123138,600.6084419022134
1.7089496668551265E12,3.0217391304347827,-6.054347826086956,4.08695652173913,14.234501628220276,-2.2683694682561715,11.966132159964104,482.48929709068506,600.6110382808492
1.7089496668746587E12,2.9565217391304346,-6.217391304347826,4.130434782608695,14.261042387609768,-2.2716870631798596,11.989355324429908,482.4888643609124,600.6209189439916
1.708949666894191E12,3.010869565217391,-6.3478260869565215,4.119565217391305,14.279721889462698,-2.2751489013610957,12.004572988101602,482.4849697929585,600.6261117012634
1.7089496669137231E12,3.0543478260869565,-6.326086956521739,4.206521739130435,14.31239298729813,-2.2892847406011505,12.02310824669698,482.48713344182175,600.6508494199335
1.7089496669332554E12,3.0760869565217392,-6.304347826086956,4.08695652173913,14.364392681645475,-2.3283746633976286,12.036018018247846,482.4843928199283,600.6708271111045
1.7089496669527874E12,3.043478260869565,-6.271739130434782,4.021739130434782,14.38797645425516,-2.3228934196106703,12.06508303464449,482.48244553595134,600.7010460735614
1.7089496669723196E12,3.010869565217391,-6.293478260869565,4.054347826086956,14.35624293759381,-2.260291845833283,12.095951091760528,482.4849697929585,600.6866938694351
1.7089496669918518E12,2.967391304347826,-6.260869565217391,4.0978260869565215,14.302728689042175,-2.187304757512184,12.11542393152999,482.4867728336779,600.6520033659939
1.708949667011384E12,2.9891304347826084,-6.228260869565217,4.119565217391305,14.22570278950963,-2.2083642731147126,12.017338516394917,482.48388796852686,600.6496954738731
1.708949667030916E12,3.010869565217391,-6.260869565217391,4.141304347826087,14.19432988099216,-2.2333904782999134,11.960939402692247,482.48093098174706,600.6388772295568
1.7089496670504482E12,2.9891304347826084,-6.282608695652174,4.1521739130434785,14.177525541487402,-2.235193519019308,11.942332022468094,482.4823734143226,600.6473875817522
1.7089496670699805E12,2.9782608695652173,-6.260869565217391,4.206521739130435,14.176587960313316,-2.235626248791963,11.940961711521354,482.4825897792089,600.6334681073986
1.7089496670895127E12,3.0543478260869565,-6.239130434782608,4.054347826086956,14.178967974062918,-2.2144224899318807,11.964545484131037,482.4817964412924,600.63750691861
1.708949667109045E12,2.9565217391304346,-6.184782608695652,4.08695652173913,14.19021894815194,-2.223942544930285,11.966276403221656,482.48093098174706,600.6380117700114
1.708949667128577E12,2.967391304347826,-6.228260869565217,4.010869565217392,14.189497731864183,-2.20843639474349,11.981061337120693,482.4798491573154,600.6297177827022
1.7089496671481091E12,2.9891304347826084,-6.173913043478261,4.054347826086956,14.183511636675792,-2.2069218405391986,11.976589796136594,482.4801376438305,600.6261117012634
1.7089496671676414E12,3.010869565217391,-6.228260869565217,4.0978260869565215,14.187694691144788,-2.202594542812651,11.985100148332137,482.4798491573154,600.6250298768318
1.7089496671871736E12,3.010869565217391,-6.304347826086956,4.054347826086956,14.17824675777516,-2.198195123457328,11.980051634317832,482.4811473466334,600.6297177827022
1.7089496672067058E12,3.010869565217391,-6.326086956521739,4.108695652173913,14.178607365919039,-2.207426691940629,11.97118067397841,482.4792721842852,600.6266165526648
1.7089496672262378E12,3.043478260869565,-6.282608695652174,4.054347826086956,14.184449217849878,-2.2062727458802165,11.978176471969661,482.4817243196636,600.6076485642968
1.70894966724577E12,3.010869565217391,-6.260869565217391,4.065217391304348,14.18048252826721,-2.2220673825821144,11.958415145685095,482.4798491573154,600.617889835583
1.7089496672653022E12,3.010869565217391,-6.239130434782608,4.032608695652174,14.172549149101872,-2.20980670569023,11.962742443411642,482.4798491573154,600.6069994696378
1.7089496672848345E12,3.0,-6.217391304347826,4.065217391304348,14.16692366205736,-2.214350368303105,11.952573293754256,482.4804261303456,600.6047636991458
1.7089496673043665E12,3.0,-6.25,4.065217391304348,14.168870946034307,-2.2151437062196386,11.953727239814668,482.48129158989093,600.600508523048
1.7089496673238987E12,3.0,-6.239130434782608,4.0,14.172621270730648,-2.2135570303865713,11.959064240344077,482.48064249523196,600.6057734019487
1.708949667343431E12,3.0,-6.206521739130435,4.010869565217392,14.170241256981047,-2.2032436374716333,11.966997619509414,482.4830946306103,600.5977679011545
1.7089496673629631E12,2.967391304347826,-6.206521739130435,4.032608695652174,14.169520040693289,-2.200935745350808,11.968584295342481,482.4825176575801,600.6036097530854
1.7089496673824954E12,2.9891304347826084,-6.217391304347826,4.043478260869565,14.15956725592223,-2.1932187310717985,11.966348524850432,482.48540252273114,600.5989218472149
1.7089496674020273E12,3.0,-6.25,4.032608695652174,14.166058202512051,-2.184203527474825,11.981854675037226,482.4830946306103,600.6022394421386
1.7089496674215596E12,3.010869565217391,-6.293478260869565,4.054347826086956,14.16966428395084,-2.1990605830026375,11.970603700948203,482.48432069829954,600.6041146044868
1.7089496674410918E12,3.0,-6.315217391304348,4.076086956521739,14.16317333736102,-2.1699955666059942,11.993177770755025,482.4830946306103,600.5958206171777
1.708949667460624E12,3.0,-6.33695652173913,4.054347826086956,14.200243854551776,-2.1692743503182346,12.030969504233541,482.482229171065,600.6095958482738
1.708949667480156E12,3.0,-6.315217391304348,4.043478260869565,14.201469922240964,-2.1604033899788124,12.041066532262152,482.4791279410277,600.5810356832785
1.7089496674996882E12,3.010869565217391,-6.282608695652174,4.043478260869565,14.202623868301377,-2.1661731202808756,12.036450748020501,482.48273402246645,600.5926472655115
1.7089496675192205E12,3.0217391304347827,-6.293478260869565,4.021739130434782,14.17738129822985,-2.153046983843682,12.024334314386168,482.48489767132975,600.590555738277
1.7089496675387527E12,3.032608695652174,-6.260869565217391,4.010869565217392,14.15185024164322,-2.1808859325511385,11.970964309092082,482.4843928199283,600.6065667398652
1.708949667558285E12,3.010869565217391,-6.271739130434782,4.0,14.119467630322891,-2.1360262794525973,11.983441350870294,482.48374372526933,600.6194043897873
1.708949667577817E12,3.032608695652174,-6.239130434782608,4.043478260869565,14.299483215747264,-2.008659483034549,12.290823732712715,482.4825897792089,600.821489193617
1.708949667597349E12,3.010869565217391,-6.271739130434782,4.0978260869565215,14.403121996298076,-1.6124232545403547,12.790698741757721,482.48475342807217,600.3847206097508
1.7089496676168813E12,3.0217391304347827,-6.282608695652174,3.9782608695652173,14.078358301920689,-2.4582657168228295,11.62009258509786,482.4836716036405,600.6771738144367
1.7089496676364136E12,3.1956521739130435,-6.184782608695652,3.7391304347826084,14.157259363801405,-2.2659894545065704,11.891269909294834,482.483527360383,600.6636870698557
1.7089496676559456E12,2.7717391304347827,-6.25,4.260869565217392,14.179400703835572,-2.2114655031520734,11.967935200683499,482.4832388738679,600.615942551606
1.7089496676754778E12,2.9891304347826084,-6.434782608695652,4.054347826086956,14.170601865124926,-2.182039878611551,11.988561986513375,482.48446494155706,600.6225777414534
1.70894966769501E12,3.0543478260869565,-6.33695652173913,3.9239130434782608,14.198152327317278,-2.1772798511123472,12.02087247620493,482.4874940499657,600.6176013490679
1.7089496677145422E12,3.0652173913043477,-6.260869565217391,4.043478260869565,14.197142624514417,-2.1716543640678356,12.025488260446581,482.48547464435995,600.6250298768318
1.7089496677340745E12,3.0,-6.304347826086956,4.076086956521739,14.217192437314086,-2.1751883238778493,12.042004113436237,482.4820128061787,600.632025674823
1.7089496677536064E12,3.0217391304347827,-6.369565217391304,4.054347826086956,14.241497426211527,-2.1777847025137778,12.06371272369775,482.4816521980348,600.6535179201983
1.7089496677731387E12,3.0217391304347827,-6.358695652173913,4.076086956521739,14.309940851919754,-2.2001424074342744,12.10979844448548,482.4816521980348,600.6807077742467
1.708949667792671E12,3.0,-6.358695652173913,4.032608695652174,14.336409489680468,-2.207138205425524,12.129271284254944,482.48388796852686,600.6978727218954
1.7089496678122031E12,3.010869565217391,-6.315217391304348,3.9782608695652173,14.359416289259945,-2.2060563809938873,12.153359908266058,482.4846813064434,600.7315535225337
1.708949667831735E12,2.9891304347826084,-6.228260869565217,3.967391304347826,14.324004569531033,-2.140281455550367,12.183723113980665,482.4856188876175,600.706671560606
1.7089496678512673E12,3.0,-6.228260869565217,4.010869565217392,14.241425304582751,-2.0757325977960335,12.165692706786718,482.48518615784485,600.6645525294009
1.7089496678707996E12,3.0,-6.239130434782608,4.054347826086956,14.193248056560524,-2.0887144909756774,12.104533565584846,482.4813637115197,600.6322420397094
1.7089496678903318E12,2.9891304347826084,-6.271739130434782,4.043478260869565,14.160793323611419,-2.1151110071076165,12.045682316503802,482.48475342807217,600.6302947557324
1.708949667909864E12,3.0,-6.271739130434782,4.054347826086956,14.167933364860222,-2.1539124433889913,12.01402092147123,482.48814314462464,600.6362087292921
1.708949667929396E12,2.9565217391304346,-6.239130434782608,4.141304347826087,14.15322055258996,-2.1397044825201608,12.0135160700698,482.4879267797383,600.632674769482
1.7089496679489282E12,3.0217391304347827,-6.293478260869565,3.9565217391304346,14.155023593309355,-2.139992969035264,12.015030624274091,482.49016255023037,600.64104087842
1.7089496679684604E12,2.967391304347826,-6.239130434782608,4.043478260869565,14.17190005444289,-2.1378293201719902,12.0340707342709,482.4915328611771,600.6403196621322
1.7089496679879927E12,2.9891304347826084,-6.239130434782608,4.054347826086956,14.170313378609823,-2.1257850081664333,12.04452837044339,482.491893469321,600.6358481211481
1.708949668007525E12,3.0,-6.304347826086956,4.021739130434782,14.173847338419836,-2.121169223924783,12.052678114495054,482.48929709068506,600.6257510931196
1.708949668027057E12,3.0217391304347827,-6.293478260869565,4.076086956521739,14.186324380198048,-2.1316268600972723,12.054697520100776,482.4894413339426,600.6186831734996
1.708949668046589E12,3.032608695652174,-6.271739130434782,4.08695652173913,14.172188540957993,-2.1089806686616743,12.063207872296319,482.4923261990936,600.6203419709614
1.7089496680661213E12,3.0,-6.271739130434782,4.130434782608695,14.163606067133674,-2.0989557622618396,12.064650304871835,482.4908837665181,600.5979842660408
1.7089496680856536E12,2.9891304347826084,-6.260869565217391,4.076086956521739,14.177525541487402,-2.1171304127133386,12.060395128774063,482.4927589288663,600.593440603428
1.7089496681051855E12,3.0,-6.25,4.054347826086956,14.169520040693289,-2.1291026030901197,12.04041743760317,482.4918213476922,600.5996430635028
1.7089496681247178E12,3.0,-6.217391304347826,4.119565217391305,14.160793323611419,-2.1161928315392533,12.044600492072165,482.4939128749267,600.5875266298684
1.70894966814425E12,2.967391304347826,-6.217391304347826,4.141304347826087,14.177164933343523,-2.119077696690285,12.058087236653238,482.4915328611771,600.5805308318771
1.7089496681637822E12,2.9782608695652173,-6.217391304347826,4.065217391304348,14.174424311450043,-2.144031780246708,12.030392531203335,482.4916049828059,600.5836320619145
1.7089496681833145E12,2.9782608695652173,-6.228260869565217,4.119565217391305,14.186540745084375,-2.131338373582169,12.055202371502206,482.49311953701016,600.5699289524471
1.7089496682028464E12,3.0,-6.25,4.0978260869565215,14.182718298759259,-2.136242644338923,12.046475654420336,482.49679774007774,600.5745447366887
1.7089496682223787E12,3.0,-6.25,4.119565217391305,14.17139520304146,-2.113884939418428,12.057510263623032,482.49824017265325,600.5710107768788
1.708949668241911E12,2.9782608695652173,-6.25,4.108695652173913,14.179977676865779,-2.1301844275217565,12.049793249344022,482.4978795645094,600.5720926013104
1.708949668261443E12,2.9782608695652173,-6.282608695652174,4.141304347826087,14.174207946563715,-2.13371838733177,12.040489559231945,482.495427429131,600.5697847091895
1.708949668280975E12,2.9891304347826084,-6.260869565217391,4.141304347826087,14.1933201781893,-2.130400792408084,12.062919385781216,482.4939128749267,600.5598319244185
1.7089496683005073E12,3.010869565217391,-6.228260869565217,4.108695652173913,14.185170434137635,-2.139343874376282,12.045826559761354,482.4929031721238,600.575770804378
1.7089496683200396E12,3.0,-6.239130434782608,4.108695652173913,14.188415907432546,-2.1048697358214543,12.083546171611092,482.49434560469933,600.5742562501737
1.7089496683395718E12,3.0,-6.271739130434782,4.108695652173913,14.206302071368942,-2.100181829951028,12.106120241417914,482.491893469321,600.5637264923723
1.708949668359104E12,2.9782608695652173,-6.228260869565217,4.130434782608695,14.227722195115351,-2.102561843700629,12.125160351414722,482.49679774007774,600.5617792083955
1.708949668378636E12,3.0,-6.239130434782608,4.1521739130434785,14.232770709129657,-2.1099182498357596,12.122852459293897,482.49607652378995,600.5391330169598
1.7089496683981682E12,3.010869565217391,-6.260869565217391,4.108695652173913,14.200748705953206,-2.126650467711743,12.074098238241463,482.49499469935836,600.5606973839638
1.7089496684177004E12,2.9891304347826084,-6.206521739130435,4.08695652173913,14.183872244819671,-2.1474214967991703,12.036450748020501,482.49239832072243,600.5552882618056
1.7089496684372327E12,2.967391304347826,-6.217391304347826,4.119565217391305,14.15047993069648,-2.0884260044605742,12.062053926235906,482.4936243884116,600.5833435753993
1.7089496684567646E12,2.967391304347826,-6.206521739130435,4.173913043478261,14.354223531988088,-1.9597610187245618,12.394462513263527,482.4929031721238,600.7637197689677
1.7089496684762969E12,2.9782608695652173,-6.25,4.206521739130435,14.751974314686576,-1.4743103354347156,13.27766397925186,482.4897298204577,600.5106449735933
1.708949668495829E12,3.010869565217391,-6.282608695652174,4.228260869565217,14.106053007370592,-2.461222703602635,11.644830303767957,482.4937686316691,600.6778950307245
1.7089496685153613E12,3.0543478260869565,-6.239130434782608,3.652173913043478,14.199594759892793,-2.4568954058760895,11.742699354016704,482.49355226678284,600.6791210984136
1.7089496685348936E12,2.8478260869565215,-6.130434782608695,4.369565217391305,14.201686287127291,-2.2093739759175755,11.992312311209716,482.49326378026774,600.5976957795258
1.7089496685544255E12,2.9782608695652173,-6.304347826086956,4.478260869565217,14.198873543605036,-2.156076092252265,12.04279745135277,482.4939128749267,600.5676931819551
1.7089496685739578E12,3.0978260869565215,-6.217391304347826,3.891304347826087,14.209042693262422,-2.149296659147341,12.059746034115081,482.49636501030506,600.5578125188127
1.70894966859349E12,3.0543478260869565,-6.119565217391304,4.119565217391305,14.225919154395957,-2.142661469299968,12.083257685095989,482.4916049828059,600.5434603146864
1.7089496686130222E12,2.9782608695652173,-6.206521739130435,4.119565217391305,14.238251952916617,-2.1575906464565566,12.08066130646006,482.4889364825412,600.5512494505941
1.7089496686325542E12,2.9891304347826084,-6.3478260869565215,4.206521739130435,14.261619360639974,-2.1340068738468734,12.127612486793101,482.4937686316691,600.5669719656673
1.7089496686520864E12,3.010869565217391,-6.326086956521739,4.217391304347826,14.302079594383192,-2.1740343778174367,12.128045216565756,482.4921098342073,600.5778623316124
1.7089496686716187E12,3.043478260869565,-6.260869565217391,4.076086956521739,14.368215127970593,-2.1798762297482774,12.188338898222316,482.49355226678284,600.6070715912666
1.708949668691151E12,3.043478260869565,-6.184782608695652,4.08695652173913,14.369585438917333,-2.2090854894024723,12.160499949514861,482.4964371319339,600.6194043897873
1.708949668710683E12,3.010869565217391,-6.173913043478261,4.130434782608695,14.354944748275846,-2.0826562741585093,12.272288474117337,482.49723046985036,600.5946666711172
1.708949668730215E12,2.9782608695652173,-6.217391304347826,4.173913043478261,14.277053389197993,-2.055971271511469,12.221082117686525,482.4977353212518,600.5777902099836
1.7089496687497473E12,2.9891304347826084,-6.206521739130435,4.173913043478261,14.216471221026328,-2.060082204351687,12.156389016674641,482.49614864541877,600.5651689249479
1.7089496687692795E12,3.0217391304347827,-6.217391304347826,4.184782608695652,14.198080205688502,-2.1040763979049206,12.094003807783581,482.49578803727485,600.5591828297595
1.7089496687888118E12,3.032608695652174,-6.25,4.206521739130435,14.180915258039864,-2.106672776540849,12.074242481499015,482.4964371319339,600.5583173702142
1.7089496688083438E12,2.9891304347826084,-6.217391304347826,4.239130434782608,14.17738129822985,-2.11864496691763,12.05873633131222,482.49737471310794,600.5598319244185
1.708949668827876E12,3.0543478260869565,-6.206521739130435,4.08695652173913,14.186035893682945,-2.1065285332832975,12.079507360399647,482.4950668209871,600.5462009365799
1.7089496688474082E12,2.9456521739130435,-6.184782608695652,4.184782608695652,14.192310475386439,-2.110495222865966,12.081815252520473,482.49939411871367,600.559976167676
1.7089496688669404E12,2.9891304347826084,-6.206521739130435,4.1521739130434785,14.20529236856608,-2.1146782773349617,12.090614091231119,482.4986007807971,600.5574519106689
1.7089496688864727E12,3.0217391304347827,-6.206521739130435,4.217391304347826,14.204426909020771,-2.11316372313067,12.091263185890101,482.50004321337263,600.5549276536617
1.7089496689060046E12,3.032608695652174,-6.25,4.217391304347826,14.199955368036672,-2.1143897908198586,12.085565577216814,482.5034329299251,600.5565143294948
1.7089496689255369E12,3.0217391304347827,-6.271739130434782,4.173913043478261,14.211494828640799,-2.1103509796084143,12.101143849032384,482.5010529161755,600.5423784902547
1.708949668945069E12,3.0217391304347827,-6.239130434782608,4.184782608695652,14.195123218908694,-2.1278765354009312,12.067246683507763,482.4974468347367,600.5552161401769
1.7089496689646013E12,3.0,-6.228260869565217,4.1521739130434785,14.195123218908694,-2.1223952916139712,12.072727927294723,482.496725618449,600.5488694368446
1.7089496689841335E12,3.0217391304347827,-6.206521739130435,4.119565217391305,14.1933201781893,-2.1332135359303397,12.06010664225896,482.49737471310794,600.5382675574145
1.7089496690036655E12,3.010869565217391,-6.206521739130435,4.1521739130434785,14.19793596243095,-2.1387669013460755,12.059169061084875,482.49780744288057,600.5357433004074
1.7089496690231978E12,2.967391304347826,-6.228260869565217,4.141304347826087,14.19469048913604,-2.1407863069517976,12.053904182184242,482.49434560469933,600.5300456917341
1.70894966904273E12,2.9782608695652173,-6.217391304347826,4.141304347826087,14.194834732393591,-2.1397044825201608,12.05513024987343,482.4957159156461,600.525862637265
1.7089496690622622E12,3.0217391304347827,-6.25,4.119565217391305,14.192671083530318,-2.1498015105487713,12.042869572981546,482.49499469935836,600.5291802321888
1.7089496690817942E12,3.010869565217391,-6.25,4.119565217391305,14.194113516105833,-2.149873632177547,12.044239883928286,482.49557167238856,600.5390608953311
1.7089496691013264E12,3.0,-6.25,4.119565217391305,14.199522638264018,-2.157446403199005,12.042076235065013,482.4924704423512,600.5424506118835
1.7089496691208586E12,3.0217391304347827,-6.271739130434782,4.163043478260869,14.196709894741762,-2.1575906464565566,12.039119248285205,482.49492257772954,600.5379790708994
1.7089496691403909E12,2.9891304347826084,-6.271739130434782,4.1521739130434785,14.187622569516012,-2.1599706602061577,12.027651909309855,482.4910280097757,600.5456239635497
1.708949669159923E12,3.0217391304347827,-6.25,4.108695652173913,14.19194986724256,-2.1785059188015357,12.013443948441024,482.4918213476922,600.5429554632849
1.708949669179455E12,3.0,-6.25,4.065217391304348,14.192310475386439,-2.1689858638031314,12.023324611583307,482.4892249690563,600.5451191121482
1.7089496691989873E12,3.0217391304347827,-6.228260869565217,4.141304347826087,14.17875160917659,-2.1298959410066534,12.048855668169937,482.488359509511,600.5466336663525
1.7089496692185195E12,3.0,-6.25,4.108695652173913,14.209691787921404,-2.153046983843682,12.056644804077722,482.48785465810954,600.5462009365799
1.7089496692380518E12,2.9891304347826084,-6.25,4.130434782608695,14.22808280325923,-2.1566530652824714,12.071429737976759,482.48417645504196,600.5376184627555
1.7089496692575837E12,3.032608695652174,-6.260869565217391,4.130434782608695,14.230174330493728,-2.1448972397920176,12.08527709070171,482.48727768507933,600.5339402596879
1.708949669277116E12,3.0,-6.25,4.119565217391305,14.19432988099216,-2.1662452419096514,12.02808463908251,482.48771041485196,600.5502397477914
1.7089496692966482E12,3.010869565217391,-6.228260869565217,4.08695652173913,14.18048252826721,-2.2066333540240954,11.973849174243114,482.4838158468981,600.5643755870313
1.7089496693161804E12,3.0,-6.217391304347826,4.076086956521739,14.145792024826054,-2.2004308939493775,11.945361130876677,482.4856188876175,600.5698568308184
1.7089496693357126E12,2.9891304347826084,-6.228260869565217,4.141304347826087,14.49024492385923,-1.7832793931102024,12.706965530749027,482.47876733288376,600.746554821319
1.7089496693552446E12,2.9891304347826084,-6.271739130434782,4.206521739130435,14.546139186160469,-1.6036965374584842,12.942442648701984,482.4820128061787,600.4065013416412
1.7089496693747769E12,3.0217391304347827,-6.293478260869565,4.206521739130435,14.050447231584458,-2.4379274175080567,11.612519814076402,482.4808588601183,600.6336844722849
1.708949669394309E12,3.141304347826087,-6.239130434782608,3.6739130434782608,14.163461823876123,-2.4298497950851683,11.733612028790954,482.4792721842852,600.6583500693262
1.7089496694138413E12,2.8260869565217392,-6.163043478260869,4.358695652173913,14.162884850845916,-2.275365266247423,11.887519584598493,482.4796327924291,600.5938733332007
1.7089496694333733E12,3.0217391304347827,-6.380434782608695,4.326086956521739,14.162019391300607,-2.2498342096607935,11.912185181639813,482.4813637115197,600.5870217784669
1.7089496694529055E12,3.0978260869565215,-6.217391304347826,3.9130434782608696,14.175073406109025,-2.2464444931083314,11.928628913000694,482.4804261303456,600.5802423453621
1.7089496694724377E12,3.0652173913043477,-6.119565217391304,4.076086956521739,14.184016488077223,-2.2530075613269283,11.931008926750295,482.4804261303456,600.5870217784669
1.70894966949197E12,2.9891304347826084,-6.206521739130435,4.065217391304348,14.190868042810923,-2.2412517358364745,11.949616306974448,482.47682004890686,600.5906999815345
1.7089496695115022E12,3.0,-6.358695652173913,4.130434782608695,14.208465720232216,-2.250988155721206,11.95747756451101,482.47804611659603,600.6039703612292
1.7089496695310342E12,3.032608695652174,-6.33695652173913,4.141304347826087,14.246834426740937,-2.266350062650451,11.980484364090486,482.47682004890686,600.6512100280775
1.7089496695505664E12,3.032608695652174,-6.293478260869565,4.065217391304348,14.268615158631226,-2.3035648230987587,11.965050335532467,482.4753054947025,600.6803471661028
1.7089496695700986E12,3.0217391304347827,-6.25,4.0,14.30554143256443,-2.3286631499127335,11.976878282651697,482.47292548095294,600.7063109524621
1.7089496695896309E12,3.0,-6.217391304347826,4.076086956521739,14.27402428078941,-2.257190615795924,12.016833664993486,482.4733582107256,600.7043636684851
1.7089496696091628E12,2.9782608695652173,-6.239130434782608,4.141304347826087,14.185819528796618,-2.198916339745086,11.986903189051532,482.4729976025817,600.672918638339
1.708949669628695E12,2.9891304347826084,-6.271739130434782,4.1521739130434785,14.129276171836398,-2.217451598340464,11.911824573495934,482.47141092674866,600.6589991639852
1.7089496696482273E12,3.010869565217391,-6.304347826086956,4.195652173913043,14.074175247451693,-2.2330298701560345,11.841145377295659,482.47234850792273,600.6526524606529
1.7089496696677595E12,3.0543478260869565,-6.271739130434782,4.141304347826087,14.053981191394472,-2.265773089620243,11.788208101774229,482.4725648728091,600.6572682448946
1.7089496696872917E12,3.0,-6.260869565217391,4.206521739130435,14.055495745598764,-2.2724082794676157,11.783087466131148,482.47198789977887,600.652291852509
1.7089496697068237E12,3.108695652173913,-6.271739130434782,4.021739130434782,14.055712110485091,-2.2648355084461578,11.790876602038933,482.4711945618623,600.6625331237952
1.708949669726356E12,3.0,-6.271739130434782,4.065217391304348,14.055279380712436,-2.2879865512831863,11.76729282942925,482.46996849417314,600.6695289217864
1.7089496697458882E12,2.9891304347826084,-6.239130434782608,4.054347826086956,14.041576271245036,-2.278466496284782,11.763109774960254,482.4688866697415,600.678039273982
1.7089496697654204E12,3.043478260869565,-6.206521739130435,4.108695652173913,14.02094948541516,-2.2706052387482227,11.750344246666938,482.47451215678603,600.6652737456886
1.7089496697849524E12,3.043478260869565,-6.206521739130435,4.163043478260869,14.019867660983524,-2.278754982799887,11.741112678183637,482.4730697242105,600.6752986520885
1.7089496698044846E12,3.032608695652174,-6.282608695652174,4.08695652173913,14.0130882278786,-2.297290241395265,11.715797986483334,482.47674792727804,600.6778229090957
1.7089496698240168E12,3.0,-6.25,4.173913043478261,14.007679105720415,-2.3049351340454987,11.702743971674916,482.47581034610397,600.6758756251187
1.708949669843549E12,3.010869565217391,-6.25,4.108695652173913,13.987052319890537,-2.311065472491439,11.675986847399098,482.4757382244752,600.6763804765202
1.7089496698630813E12,3.010869565217391,-6.271739130434782,4.108695652173913,13.97363769693824,-2.3126521483245064,11.660985548613734,482.4728533593242,600.6846744638294
1.7089496698826133E12,3.0,-6.25,4.119565217391305,13.961449141675132,-2.3307546771472296,11.630694464527902,482.4735745756119,600.6878478154955
1.7089496699021455E12,2.9891304347826084,-6.217391304347826,4.0978260869565215,13.953299397623468,-2.3347213667299,11.618578030893568,482.47234850792273,600.6879199371243
1.7089496699216777E12,3.0,-6.228260869565217,4.130434782608695,13.934692017399314,-2.3303219473745767,11.604370070024737,482.4729976025817,600.6972236272363
1.70894966994121E12,3.0,-6.173913043478261,4.130434782608695,13.921782245848448,-2.355203909302224,11.566578336546224,482.4733582107256,600.7084746013254
1.7089496699607422E12,2.9891304347826084,-6.217391304347826,4.1521739130434785,13.920988907931914,-2.3422941377513578,11.578694770180556,482.47234850792273,600.7036424521974
1.7089496699802742E12,2.9565217391304346,-6.228260869565217,4.1521739130434785,13.906276095661653,-2.365805788732265,11.540470306929388,482.4737188188695,600.7228268054517
1.7089496699998064E12,2.9782608695652173,-6.260869565217391,4.163043478260869,13.887091742407293,-2.35116509809078,11.535926644316513,482.4748727649299,600.7168407102633
1.7089496700193386E12,2.9565217391304346,-6.25,4.163043478260869,13.887019620778517,-2.3766961546774095,11.510323466101108,482.4788394545126,600.7298947250717
1.7089496700388708E12,2.967391304347826,-6.271739130434782,4.141304347826087,13.882043228392988,-2.379869506343546,11.502173722049442,482.48093098174706,600.7203025484446
1.7089496700584028E12,2.9782608695652173,-6.271739130434782,4.130434782608695,13.868484362183137,-2.3862883313045895,11.482196030878548,482.483527360383,600.7129461423095
1.708949670077935E12,2.967391304347826,-6.271739130434782,4.130434782608695,13.860983712790455,-2.3900386560009306,11.470945056789525,482.48186856292114,600.6953484648882
1.7089496700974673E12,2.967391304347826,-6.25,4.119565217391305,13.8605509830178,-2.3826101282370242,11.477940854780776,482.47847884636866,600.7042915468564
1.7089496701169995E12,2.9891304347826084,-6.25,4.0978260869565215,13.860478861389025,-2.3705658162314673,11.489913045157557,482.4816521980348,600.7174898049224
1.7089496701365317E12,2.9782608695652173,-6.239130434782608,4.08695652173913,13.886370526119535,-2.3783549521392526,11.508015573980282,482.4795606708003,600.7209516431036
1.7089496701560637E12,2.9782608695652173,-6.228260869565217,4.141304347826087,13.871297105705395,-2.3619112207783726,11.509385884927022,482.4799212789442,600.7106382501887
1.708949670175596E12,2.9782608695652173,-6.25,4.0978260869565215,13.863147361653729,-2.384413168956419,11.47873419269731,482.4810752250046,600.7433814696528
1.7089496701951282E12,2.9891304347826084,-6.271739130434782,4.08695652173913,13.806748247951061,-2.404246616869761,11.4025016310813,482.4784067247399,600.7596809577562
1.7089496702146604E12,2.967391304347826,-6.260869565217391,4.043478260869565,13.79066512473406,-2.4236473350104504,11.36701778972361,482.48064249523196,600.7631427959375
1.7089496702341924E12,3.0,-6.228260869565217,4.08695652173913,13.878004417181543,-2.3173400541949345,11.560664362986609,482.4755939812176,600.9502984226106
1.7089496702537246E12,2.9782608695652173,-6.25,4.163043478260869,14.37477819618919,-1.7063256152064348,12.668452580982756,482.473863062127,600.7939387314246
1.7089496702732568E12,2.9891304347826084,-6.293478260869565,4.184782608695652,13.746743052809604,-2.195742988078951,11.551000064730653,482.4788394545126,600.6548161095162
1.708949670292789E12,2.9891304347826084,-6.271739130434782,3.7282608695652173,13.79477605757428,-2.7715620722248637,11.023213985349416,482.47581034610397,600.9005344987553
1.7089496703123213E12,2.9239130434782608,-6.130434782608695,4.206521739130435,13.775375339433593,-2.5166121145024434,11.25876322493115,482.475161251445,600.8225710180487
1.7089496703318533E12,3.010869565217391,-6.315217391304348,4.228260869565217,13.76787469004091,-2.4703100288283864,11.297564661212524,482.4750170081874,600.7924962988492
1.7089496703513855E12,2.9130434782608696,-6.3478260869565215,4.119565217391305,13.779414150645037,-2.4407401610303125,11.338673989614724,482.47321396746804,600.777422878435
1.7089496703709177E12,3.119565217391304,-6.173913043478261,3.967391304347826,13.784895394431997,-2.4351867956145767,11.34970859881742,482.4700406158019,600.7940829746823
1.70894967039045E12,2.9782608695652173,-6.184782608695652,4.1521739130434785,13.793117260112437,-2.4431201747799136,11.349997085332523,482.46809333182495,600.794155096311
1.708949670409982E12,2.9565217391304346,-6.3478260869565215,4.021739130434782,13.798093652497966,-2.4574723789062958,11.34062127359167,482.4679490885674,600.7992036103253
1.7089496704295142E12,3.0,-6.380434782608695,4.0978260869565215,13.830259898931969,-2.469083961139198,11.36117593779277,482.4677327236811,600.8274031671766
1.7089496704490464E12,3.0,-6.369565217391304,4.08695652173913,13.861560685820661,-2.486609516931715,11.374951168888947,482.4638381557272,600.8512754263014
1.7089496704685786E12,3.010869565217391,-6.326086956521739,4.021739130434782,13.892717229451804,-2.5147369521542746,11.37798027729753,482.46484785853005,600.888418065121
1.7089496704881108E12,2.9891304347826084,-6.293478260869565,4.010869565217392,13.90411244679838,-2.4976441261344107,11.406468320663969,482.4625399664092,600.8907259572418
1.7089496705076428E12,2.9782608695652173,-6.25,4.043478260869565,13.827807763553592,-2.418670942624919,11.409136820928673,482.4638381557272,600.8631033734207
1.708949670527175E12,2.9565217391304346,-6.228260869565217,4.130434782608695,13.753810972429632,-2.3888847099405197,11.364926262489112,482.4629726961819,600.8302880323276
1.7089496705467073E12,3.0217391304347827,-6.217391304347826,4.108695652173913,13.699719750847787,-2.4274697813355655,11.272249969512222,482.46398239898474,600.8300716674414
1.7089496705662395E12,3.010869565217391,-6.25,4.108695652173913,13.683708749259562,-2.4737718670096243,11.209936882249938,482.4623957231517,600.8236528424803
1.7089496705857715E12,3.010869565217391,-6.239130434782608,4.08695652173913,13.684069357403441,-2.471824583032678,11.212244774370763,482.4629005745531,600.8227152613063
1.7089496706053037E12,3.0,-6.260869565217391,4.184782608695652,13.675414761950346,-2.470382150457162,11.205032611493184,482.46513634504515,600.8328122893348
1.708949670624836E12,3.043478260869565,-6.260869565217391,4.054347826086956,13.672025045397884,-2.4794694756829116,11.192555569714973,482.463910277356,600.8346874516831
1.7089496706443682E12,2.9565217391304346,-6.260869565217391,4.108695652173913,13.671159585852575,-2.470382150457162,11.200777435395413,482.4626842096668,600.8307207621003
1.7089496706639004E12,2.9782608695652173,-6.25,4.0978260869565215,13.660124976649879,-2.450909310687699,11.20921566596218,482.4640545206135,600.8201910042991
1.7089496706834324E12,3.0217391304347827,-6.228260869565217,4.130434782608695,13.672169288655436,-2.489278017196419,11.182891271459017,482.463261182697,600.8309371269867
1.7089496707029646E12,3.0,-6.260869565217391,4.119565217391305,13.661351044339067,-2.4681463799651127,11.193204664373955,482.4643430071286,600.8191091798675
1.7089496707224968E12,3.0,-6.293478260869565,4.1521739130434785,13.661423165967843,-2.4796137189404632,11.18180944702738,482.4663624127343,600.8071369894907
1.708949670742029E12,2.9891304347826084,-6.271739130434782,4.141304347826087,13.652696448885973,-2.4915859093172443,11.161110539568728,482.46852606159763,600.8097333681266
1.7089496707615613E12,2.9891304347826084,-6.260869565217391,4.076086956521739,13.650388556765147,-2.5007453561717696,11.149643200593378,482.46924727788536,600.8096612464979
1.7089496707810933E12,3.0,-6.228260869565217,4.08695652173913,13.645340042750842,-2.504351437610559,11.140988605140283,482.47198789977887,600.8149261253984
1.7089496708006255E12,2.9891304347826084,-6.206521739130435,4.141304347826087,13.638200001502039,-2.526925507417383,11.111274494084656,482.47321396746804,600.8224988964199
1.7089496708201577E12,2.9782608695652173,-6.282608695652174,4.130434782608695,13.624352648777087,-2.517333330790203,11.107019317986884,482.4798491573154,600.8176667472919
1.70894967083969E12,3.010869565217391,-6.271739130434782,4.141304347826087,13.634305433548146,-2.5354358596129263,11.09886957393522,482.47905581939887,600.82603285623
1.708949670859222E12,3.0,-6.239130434782608,4.108695652173913,13.637406663585505,-2.5307479537425,11.106658709843005,482.4796327924291,600.8127624765352
1.7089496708787542E12,2.9891304347826084,-6.25,4.08695652173913,13.640435771994088,-2.5521680774889095,11.088267694505179,482.47847884636866,600.8213449503595
1.7089496708982864E12,2.9891304347826084,-6.228260869565217,4.08695652173913,13.626949027413016,-2.535219494726599,11.091729532686417,482.4820128061787,600.8132673279366
1.7089496709178186E12,2.9782608695652173,-6.228260869565217,4.08695652173913,13.630194500707926,-2.548273509535017,11.08192099117291,482.48244553595134,600.815719463315
1.7089496709373508E12,3.0,-6.25,4.130434782608695,13.627453878814446,-2.5295218860533115,11.097931992761135,482.4820128061787,600.8207679773293
1.7089496709568828E12,3.0,-6.271739130434782,4.1521739130434785,13.61158712048377,-2.5409892250286603,11.07059789545511,482.4853304011024,600.8300716674414
1.708949670976415E12,3.0,-6.25,4.141304347826087,13.62601144623893,-2.534786764953944,11.091224681284986,482.4843928199283,600.8139885442243
1.7089496709959473E12,3.010869565217391,-6.206521739130435,4.119565217391305,13.624208405519536,-2.544090455066021,11.080117950453515,482.48417645504196,600.8052618271425
1.7089496710154795E12,3.010869565217391,-6.217391304347826,4.1521739130434785,13.628535703246083,-2.548273509535017,11.080262193711066,482.4843928199283,600.8126903549064
1.7089496710350115E12,3.0,-6.260869565217391,4.1521739130434785,13.657961327786605,-2.5278630885914684,11.130098239195137,482.48511403621603,600.814421273997
1.7089496710545437E12,2.9891304347826084,-6.260869565217391,4.130434782608695,13.663154085058462,-2.5336328188935315,11.12952126616493,482.4849697929585,600.7964629884318
1.708949671074076E12,3.010869565217391,-6.228260869565217,4.163043478260869,13.666904409754803,-2.55267292889034,11.114231480864463,482.48713344182175,600.8061994083166
1.7089496710936082E12,3.0,-6.239130434782608,4.108695652173913,13.62500174343607,-2.5350031298402715,11.089998613595798,482.48799890136706,600.8191813014962
1.7089496711131404E12,3.0,-6.217391304347826,4.065217391304348,13.606538606469465,-2.5917628516868163,11.014775754782649,482.48814314462464,600.8318747081607
1.7089496711326724E12,2.9782608695652173,-6.195652173913043,4.184782608695652,13.576463887269961,-2.533200089120875,11.043263798149086,482.4858352525038,600.8815665103873
1.7089496711522046E12,3.010869565217391,-6.25,4.217391304347826,13.841510873020992,-2.228702572429487,11.612808300591505,482.48511403621603,601.0175879022585
1.7089496711717368E12,2.9782608695652173,-6.271739130434782,4.195652173913043,14.079944977753756,-1.9693531953517436,12.110591782402013,482.48518615784485,600.7400638747292
1.708949671191269E12,3.010869565217391,-6.217391304347826,4.195652173913043,13.540042464738187,-2.915372600003792,10.624669864734395,482.48446494155706,600.9580875585184
1.708949671210801E12,3.1630434782608696,-6.163043478260869,3.75,13.610865904196013,-2.8444049172884114,10.766460986907601,482.48244553595134,600.9261376769707
1.7089496712303333E12,2.8478260869565215,-6.141304347826087,4.554347826086956,13.61194772862765,-2.599047136193171,11.012900592434478,482.48511403621603,600.8359135193722
1.7089496712498655E12,2.9782608695652173,-6.293478260869565,4.293478260869565,13.612380458400304,-2.5989750145643953,11.013405443835909,482.4858352525038,600.8210564638443
1.7089496712693977E12,3.0978260869565215,-6.1521739130434785,3.9456521739130435,13.628968433018738,-2.57596821498492,11.053000218033818,482.4839600901556,600.8168734093754
1.70894967128893E12,2.9891304347826084,-6.130434782608695,4.228260869565217,13.643392758773896,-2.583973715779033,11.059419042994863,482.4820128061787,600.8196140312689
1.708949671308462E12,2.9782608695652173,-6.260869565217391,4.130434782608695,13.647792178129219,-2.5937101356637644,11.054082042465454,482.4801376438305,600.8179552338071
1.7089496713279941E12,3.0217391304347827,-6.304347826086956,4.206521739130435,13.683852992517114,-2.6050332313815634,11.07881976113555,482.4779739949673,600.8197582745264
1.7089496713475264E12,3.0217391304347827,-6.260869565217391,4.184782608695652,13.720274415048888,-2.6118126644864876,11.1084617505624,482.4757382244752,600.8328844109636
1.7089496713670586E12,3.0,-6.25,4.076086956521739,13.771913501252355,-2.6348194640659646,11.13709403718639,482.4769642921644,600.8695943200105
1.7089496713865906E12,2.9782608695652173,-6.195652173913043,4.0978260869565215,13.785400245833427,-2.6438346676629383,11.14156557817049,482.47768550845217,600.8828646997052
1.7089496714061228E12,3.0,-6.163043478260869,4.1521739130434785,13.765783162806413,-2.5655827004412064,11.200200462365206,482.47768550845217,600.8740658609946
1.708949671425655E12,2.9782608695652173,-6.206521739130435,4.163043478260869,13.689622722819177,-2.5079575190493486,11.181665203769828,482.4769642921644,600.8504820883849
1.7089496714451873E12,2.9891304347826084,-6.217391304347826,4.173913043478261,13.615337445180112,-2.5351473730978213,11.08019007208229,482.4728533593242,600.8381492898643
1.7089496714647195E12,2.9782608695652173,-6.282608695652174,4.206521739130435,13.597162794728613,-2.5587311457075046,11.038431649021108,482.4728533593242,600.8317304649032
1.7089496714842515E12,2.967391304347826,-6.271739130434782,4.173913043478261,13.590671848138792,-2.5597408485103657,11.030930999628426,482.4715551700062,600.8301437890701
1.7089496715037837E12,2.967391304347826,-6.25,4.195652173913043,13.578916022648338,-2.569982119796528,11.00893390285181,482.4735745756119,600.8390868710384
