Shimmer_6D72_TimestampSync_Unix_CAL,Shimmer_6D72_Accel_LN_X_CAL,Shimmer_6D72_Accel_LN_Y_CAL,Shimmer_6D72_Accel_LN_Z_CAL,Shimmer_6D72_ECG_LA-RA_24BIT_CAL,Shimmer_6D72_ECG_LL-LA_24BIT_CAL,Shimmer_6D72_ECG_LL-RA_24BIT_CAL,Shimmer_6D72_ECG_RESP_24BIT_CAL,Shimmer_6D72_ECG_Vx-RL_24BIT_CAL
ms,m/(s^2),m/(s^2),m/(s^2),mV,mV,mV,mV,mV
1.7089450419773232E12,1.826086956521739,-6.315217391304348,3.7391304347826084,3.284346852820737,0.9871287330542486,4.2714755858749855,484.8766672464213,599.3892257677586
1.708945041996855E12,1.826086956521739,-6.315217391304348,3.7391304347826084,3.3431981019017822,0.9182525775733685,4.261450679475151,484.8781096789968,599.3977361199542
1.708945042016387E12,1.8152173913043477,-6.3478260869565215,3.7282608695652173,3.342044155841369,0.9180362126870407,4.26008036852841,484.87320540824004,599.4001882553325
1.7089450420359187E12,1.7934782608695652,-6.369565217391304,3.75,3.351780575726101,0.9284938488595307,4.280274424585632,484.87551330036086,599.3864130242364
1.7089450420554507E12,1.826086956521739,-6.380434782608695,3.782608695652174,3.2832650283891,1.009270073088416,4.292535101477516,484.8771720978227,599.5350557011433
1.7089450420749827E12,1.8152173913043477,-6.4021739130434785,3.717391304347826,2.4274697813355663,1.8186189912103403,4.246088772545907,484.8840957741852,599.409996796846
1.7089450420945144E12,1.8043478260869565,-6.358695652173913,3.7391304347826084,3.180131099239719,1.0736746875851972,4.253805786824916,484.8728448000962,599.1766112061276
1.7089450421140464E12,1.8369565217391304,-6.4021739130434785,3.652173913043478,3.205229426053694,1.0257138044492966,4.230943230502991,484.8755854219896,599.4528370443388
1.7089450421335784E12,1.7717391304347825,-6.33695652173913,3.8260869565217392,3.3058390981959223,1.041508441151195,4.347347539347117,484.8765951247925,599.4648092347156
1.70894504215311E12,1.7826086956521738,-6.3478260869565215,3.684782608695652,3.298049962288137,1.0516054691798056,4.3496554314679425,484.8755854219896,599.468559559412
1.708945042172642E12,1.8043478260869565,-6.3478260869565215,3.684782608695652,3.2927850833875043,1.0650922137608783,4.357877297148383,484.8757296652472,599.4782959792967
1.7089450421921738E12,1.8478260869565217,-6.3478260869565215,3.6956521739130435,3.2699225270655785,1.0836274723562567,4.353549999421835,484.8724841919523,599.5051252252014
1.7089450422117058E12,1.7934782608695652,-6.315217391304348,3.760869565217391,3.2692013107778206,1.0928590408395578,4.362060351617378,484.8730611649825,599.5136355773968
1.7089450422312378E12,1.8152173913043477,-6.380434782608695,3.7282608695652173,3.2350877803668716,1.115216745760053,4.350304526126925,484.8725563135811,599.5485424457244
1.7089450422507695E12,1.7826086956521738,-6.4021739130434785,3.7065217391304346,3.19982030389551,1.1323816934086914,4.332201997304201,484.8735660163839,599.5713328804175
1.7089450422703015E12,1.826086956521739,-6.413043478260869,3.684782608695652,3.1458733255712183,1.1537296955263252,4.2996030210975436,484.87320540824004,599.6708607281281
1.7089450422898335E12,1.8369565217391304,-6.4021739130434785,3.7065217391304346,3.1205586338709157,1.160148520487371,4.280707154358287,484.8737102596415,599.6990602849794
1.7089450423093652E12,1.7934782608695652,-6.369565217391304,3.7065217391304346,3.10267246993452,1.1671443184786225,4.269816788413142,484.87407086778535,599.69018932464
1.7089450423288972E12,1.7934782608695652,-6.358695652173913,3.652173913043478,3.18748750537485,1.1289198552274526,4.316407360602303,484.8725563135811,599.5448642426568
1.708945042348429E12,1.8043478260869565,-6.3478260869565215,3.6739130434782608,3.2472042140012043,1.0826898911821718,4.329894105183376,484.8754411787321,599.4724541273658
1.708945042367961E12,1.8152173913043477,-6.369565217391304,3.7282608695652173,3.297689354144258,1.0279495749413465,4.3256389290856045,484.8736381380127,599.4187956355566
1.708945042387493E12,1.8152173913043477,-6.391304347826087,3.6630434782608696,3.3111760987253307,1.0120828166106728,4.3232589153360035,484.8729890433537,599.4019191744231
1.7089450424070247E12,1.8695652173913042,-6.4021739130434785,3.7065217391304346,3.3233646539884396,1.0088373433157618,4.332201997304201,484.8741429894141,599.3967264171513
1.7089450424265566E12,1.8369565217391304,-6.413043478260869,3.684782608695652,3.3169458290273943,1.0059524781647302,4.3228983071921245,484.8752969354745,599.3930482140837
1.7089450424460886E12,1.8369565217391304,-6.315217391304348,3.6739130434782608,3.3188931130043406,1.0045100455892144,4.323403158593555,484.87508057058824,599.4141077296863
1.7089450424656204E12,1.7934782608695652,-6.3478260869565215,3.684782608695652,3.322931924215785,1.0082603702855555,4.33119229450134,484.87421511104293,599.4069676884375
1.7089450424851523E12,1.7934782608695652,-6.326086956521739,3.641304347826087,3.3250234514502828,1.0034282211575776,4.32845167260786,484.87933574668597,599.3949954980607
1.708945042504684E12,1.8043478260869565,-6.358695652173913,3.7065217391304346,3.331875006183983,0.9937639229016217,4.3256389290856045,484.88034544948886,599.3851869565472
1.708945042524216E12,1.8152173913043477,-6.4021739130434785,3.7282608695652173,3.330432573608467,0.9955669636210165,4.3259995372294835,484.8763066382774,599.381364510222
1.708945042543748E12,1.7934782608695652,-6.413043478260869,3.782608695652174,3.3437029533032128,0.9741468398746056,4.317849793177818,484.87796543573927,599.3794893478739
1.7089450425632798E12,1.8043478260869565,-6.423913043478261,3.7717391304347827,3.340673844894629,0.964554663247426,4.305228508142055,484.8799127197162,599.3755226582912
1.7089450425828118E12,1.8043478260869565,-6.423913043478261,3.782608695652174,3.341755669326266,0.9597225141194481,4.301478183445714,484.8802733278601,599.3719165768524
1.7089450426023438E12,1.7934782608695652,-6.391304347826087,3.7391304347826084,3.339375655576665,0.9697474205192829,4.309123076095948,484.8861151797909,599.3645601707173
1.7089450426218755E12,1.7826086956521738,-6.3478260869565215,3.652173913043478,3.3452175075075044,0.9553952163929003,4.300612723900405,484.88604305816216,599.3711232389359
1.7089450426414075E12,1.717391304347826,-6.3478260869565215,3.641304347826087,3.349472683605276,0.9603716087784298,4.309844292383706,484.878686652027,599.3561940617793
1.7089450426609392E12,1.717391304347826,-6.304347826086956,3.6739130434782608,3.3540163462181507,0.9552509731353487,4.309267319353499,484.88387940929886,599.3635504679145
1.7089450426804712E12,1.7608695652173914,-6.315217391304348,3.7282608695652173,3.351924818983653,0.9582079599151561,4.310132778898809,484.8886394367981,599.3558334536355
1.7089450427000032E12,1.8152173913043477,-6.33695652173913,3.75,3.3426932505003513,0.9747238129048124,4.317417063405164,484.88662003119236,599.365641995149
1.708945042719535E12,1.8043478260869565,-6.380434782608695,3.782608695652174,3.3367071553119607,1.007755518884125,4.344462674196086,484.88856731516927,599.3734311310567
1.708945042739067E12,1.7826086956521738,-6.358695652173913,3.8152173913043477,3.2485745249479443,1.0772086473952118,4.325783172343156,484.8880624637679,599.3649207788612
1.7089450427585989E12,1.717391304347826,-6.358695652173913,3.7717391304347827,3.268407972861287,1.057807929254524,4.326215902115811,484.8874854907377,599.3422024657968
1.7089450427781306E12,1.717391304347826,-6.326086956521739,3.7391304347826084,3.32112888349639,0.9613813115812913,4.282510195077681,484.89354370755484,599.3524437370829
1.7089450427976626E12,1.7065217391304348,-6.304347826086956,3.6739130434782608,3.3726958480710802,0.9216422941258307,4.294338142196911,484.88871155842685,599.3440055065162
1.7089450428171943E12,1.717391304347826,-6.326086956521739,3.7391304347826084,3.395919012536885,0.8881778583738638,4.284096870910749,484.8908752072901,599.3455921823493
1.7089450428367263E12,1.7717391304347825,-6.3478260869565215,3.8043478260869565,3.3898607957197187,0.8966160889406312,4.28647688466035,484.8933273426685,599.3360721273509
1.7089450428562583E12,1.7282608695652173,-6.380434782608695,3.793478260869565,3.354593319248357,0.9627516225280308,4.317344941776388,484.8975825187663,599.4613473965344
1.70894504287579E12,1.7826086956521738,-6.380434782608695,3.760869565217391,2.5404843736272307,1.7843612175418402,4.324845591169071,484.90320800581077,599.4203823113897
1.708945042895322E12,1.7282608695652173,-6.369565217391304,3.8043478260869565,3.2614121748700353,1.1403150725740283,4.401727247444064,484.8944812887289,599.0989362119361
1.708945042914854E12,1.7717391304347825,-6.380434782608695,3.684782608695652,3.2665328105131164,0.9243829160193102,4.190915726532427,484.8975825187663,599.4125210538532
1.7089450429343857E12,1.7391304347826086,-6.304347826086956,3.9456521739130435,3.348390859173639,0.9796280836615665,4.328018942835206,484.89779888365257,599.4197332167308
1.7089450429539177E12,1.7934782608695652,-6.326086956521739,3.6956521739130435,3.3594975900051107,0.967439528398458,4.326937118403569,484.8995298027432,599.4332199613118
1.7089450429734495E12,1.7826086956521738,-6.380434782608695,3.7391304347826084,3.3524296703850833,0.9882105574858855,4.340640227870969,484.8995298027432,599.4350230020312
1.7089450429929814E12,1.8695652173913042,-6.3478260869565215,3.6739130434782608,3.3387986825464586,1.0011203290367523,4.339919011583211,484.8986643431979,599.4538467471417
1.7089450430125134E12,1.826086956521739,-6.369565217391304,3.782608695652174,3.3331010738731712,1.0081882486567797,4.341289322529951,484.89650069433463,599.4601213288453
1.7089450430320452E12,1.8043478260869565,-6.369565217391304,3.7391304347826084,3.2795147036927585,1.043744211643245,4.3232589153360035,484.9005395055461,599.4903402913022
1.7089450430515771E12,1.7826086956521738,-6.3478260869565215,3.7065217391304346,3.2733843652468164,1.0319162645240145,4.305300629770831,484.89938555948567,599.5256077677736
1.7089450430711091E12,1.7934782608695652,-6.380434782608695,3.6956521739130435,3.2371071859725937,1.0420854141814013,4.279192600153995,484.89779888365257,599.5662843664032
1.7089450430906409E12,1.826086956521739,-6.3478260869565215,3.6739130434782608,3.182222626474217,1.0658134300486362,4.248036056522853,484.8956352347893,599.6346556704826
1.7089450431101729E12,1.8478260869565217,-6.282608695652174,3.717391304347826,3.1745056121952073,1.0552836722473709,4.229789284442578,484.899601924372,599.6372520491186
1.7089450431297046E12,1.8478260869565217,-6.304347826086956,3.684782608695652,3.250521808924891,1.0394890355454725,4.2900108444703635,484.8974382755087,599.4906287778174
1.7089450431492366E12,1.826086956521739,-6.358695652173913,3.684782608695652,3.327619830086211,0.9793395971464629,4.306959427232674,484.8995298027432,599.4141077296863
1.7089450431687686E12,1.8043478260869565,-6.358695652173913,3.7282608695652173,3.3792589162896776,0.9132761851878386,4.292535101477516,484.8984479783116,599.377542063897
1.7089450431883003E12,1.7717391304347825,-6.391304347826087,3.7065217391304346,3.392817782499526,0.9064967520829144,4.29931453458244,484.9005395055461,599.3571316429534
1.7089450432078323E12,1.8043478260869565,-6.4021739130434785,3.75,3.390726255265028,0.8924330344716354,4.2831592897366635,484.8991691945993,599.3579971024988
1.7089450432273643E12,1.8369565217391304,-6.4021739130434785,3.7065217391304346,3.3933226339009566,0.8995730757204385,4.292895709621395,484.9001788974022,599.3508570612499
1.708945043246896E12,1.8369565217391304,-6.33695652173913,3.6304347826086953,3.405294824277738,0.8952457779938907,4.300540602271629,484.89577947804685,599.3451594525766
1.708945043266428E12,1.7717391304347825,-6.326086956521739,3.6739130434782608,3.4092615138604065,0.8865190609120202,4.295780574772427,484.89664493759216,599.348260682614
1.7089450432859597E12,1.7608695652173914,-6.33695652173913,3.6956521739130435,3.4032754186720156,0.8910627235248954,4.294338142196911,484.8956352347893,599.3448709660615
1.7089450433054917E12,1.7608695652173914,-6.4021739130434785,3.75,3.395558404393006,0.8914233316687743,4.28698173606178,484.89678918084974,599.3425630739407
1.7089450433250237E12,1.7934782608695652,-6.423913043478261,3.6956521739130435,3.405294824277738,0.8759171814819791,4.281212005759717,484.9001788974022,599.3388127492443
1.7089450433445554E12,1.8478260869565217,-6.413043478260869,3.7282608695652173,3.4155360955639003,0.862214072014579,4.277750167578479,484.89880858645546,599.3458085472356
1.7089450433640874E12,1.8369565217391304,-6.380434782608695,3.7065217391304346,3.409117270602855,0.8623583152721306,4.2714755858749855,484.8984479783116,599.3516503991665
1.7089450433836194E12,1.8152173913043477,-6.3478260869565215,3.6630434782608696,3.421738555638618,0.8493043004637126,4.271042856102331,484.8981594917965,599.3438612632586
1.7089450434031511E12,1.8152173913043477,-6.326086956521739,3.6739130434782608,3.430321029462937,0.8476455030018695,4.277966532464807,484.89491401850154,599.3426351955694
1.708945043422683E12,1.826086956521739,-6.3478260869565215,3.6956521739130435,3.4227482584414792,0.833798150276917,4.256546408718396,484.8986643431979,599.3515061559089
1.7089450434422148E12,1.8369565217391304,-6.369565217391304,3.75,3.424551299160874,0.8482224760320758,4.27277377519295,484.8941928022138,599.3430679253421
1.7089450434617468E12,1.8478260869565217,-6.369565217391304,3.684782608695652,3.4304652727204887,0.8285332713762843,4.258998544096773,484.8970055457361,599.3509291828786
1.7089450434812788E12,1.858695652173913,-6.380434782608695,3.7065217391304346,3.432412556697435,0.8461309487975779,4.278543505495013,484.89577947804685,599.3459527904931
1.7089450435008105E12,1.826086956521739,-6.4021739130434785,3.6956521739130435,3.4306095159780403,0.8674789509152117,4.298088466893252,484.89397643732747,599.3501358449621
1.7089450435203425E12,1.8043478260869565,-6.391304347826087,3.7282608695652173,3.3988038776879166,0.9154398340511123,4.314243711739029,484.89412068058505,599.363045616513
1.7089450435398745E12,1.8369565217391304,-6.391304347826087,3.717391304347826,3.347741764514657,0.962679500899255,4.310421265413912,484.89354370755484,599.329292694246
1.7089450435594062E12,1.8478260869565217,-6.358695652173913,3.684782608695652,3.3633200363302276,0.8959669942816486,4.259287030611876,484.89635645107705,599.3186186931871
1.7089450435789382E12,1.8478260869565217,-6.33695652173913,3.684782608695652,3.4362350030225524,0.83769271823081,4.273927721253362,484.8911636938052,599.3222968962547
1.70894504359847E12,1.8152173913043477,-6.33695652173913,3.652173913043478,3.4563569374509977,0.7970882412300395,4.253445178681037,484.8953467482742,599.3228738692849
1.708945043618002E12,1.8369565217391304,-6.369565217391304,3.6739130434782608,3.4778491828261835,0.782663915474882,4.2605130983010655,484.89491401850154,599.3293648158747
1.708945043637534E12,1.8152173913043477,-6.380434782608695,3.7391304347826084,3.509726942745083,0.8268744739144416,4.336601416659525,484.89693342410726,599.3476837095837
1.7089450436570657E12,1.8369565217391304,-6.380434782608695,3.717391304347826,3.254632741765111,1.003356099528801,4.257988841293912,484.8968613024785,599.5180349967521
1.7089450436765977E12,1.8043478260869565,-6.391304347826087,3.6739130434782608,2.5867143376725124,1.7198844814162828,4.306598819088795,484.8923176398656,599.0077023515347
1.7089450436961296E12,1.826086956521739,-6.380434782608695,3.6304347826086953,3.3585600088310255,0.80668041785722,4.1652404266882455,484.8861151797909,599.2317121305123
1.7089450437156614E12,1.826086956521739,-6.380434782608695,3.760869565217391,3.404789972876307,0.9146464961345786,4.319436469010886,484.88842307191175,599.4115834726791
1.7089450437351934E12,1.7934782608695652,-6.380434782608695,3.6956521739130435,3.4188536904875866,0.9085882793174127,4.327441969804999,484.88690851770747,599.4065349586648
1.708945043754725E12,1.7717391304347825,-6.33695652173913,3.608695652173913,3.4232531098429098,0.9007270217808516,4.323980131623761,484.88871155842685,599.4255029470329
1.708945043774257E12,1.8478260869565217,-6.3478260869565215,3.608695652173913,3.4127954736704202,0.9107519281806864,4.323547401851107,484.89404855895623,599.4252865821466
1.708945043793789E12,1.826086956521739,-6.315217391304348,3.652173913043478,3.399380850718123,0.9249598890495174,4.32434073976764,484.8861151797909,599.4472836789231
1.7089450438133208E12,1.7608695652173914,-6.391304347826087,3.684782608695652,3.386615322424808,0.9324605384421987,4.319075860867007,484.88568245001824,599.4684874377832
1.7089450438328528E12,1.7826086956521738,-6.423913043478261,3.7065217391304346,3.3481744942873117,0.9539527838173845,4.302127278104696,484.88604305816216,599.4940906159986
1.7089450438523848E12,1.7934782608695652,-6.4021739130434785,3.6739130434782608,3.3091566931196086,0.969170447489077,4.278327140608686,484.88698063933623,599.5693134748118
1.7089450438719165E12,1.7826086956521738,-6.445652173913043,3.6956521739130435,3.2705716217245606,0.9897251116901775,4.260296733414738,484.88539396350313,599.6151107090844
1.7089450438914485E12,1.7608695652173914,-6.4021739130434785,3.6630434782608696,3.219581630180077,1.0033560995288013,4.222937729708878,484.886403666306,599.6487193880939
1.7089450439109802E12,1.7608695652173914,-6.33695652173913,3.641304347826087,3.2575897285449185,1.0048706537330934,4.262460382278012,484.88568245001824,599.5744341104548
1.7089450439305122E12,1.7826086956521738,-6.293478260869565,3.6304347826086953,3.3631036714439,0.9297920381774949,4.292895709621395,484.8852497202456,599.4421630432801
1.7089450439500442E12,1.7608695652173914,-6.304347826086956,3.652173913043478,3.4064487703381507,0.8937312237895991,4.30017999412775,484.88683639607865,599.3885766730997
1.708945043969576E12,1.7608695652173914,-6.380434782608695,3.6956521739130435,3.432124070182332,0.8613486124692695,4.293472682651601,484.88604305816216,599.365641995149
1.708945043989108E12,1.7608695652173914,-6.380434782608695,3.641304347826087,3.4443847470742166,0.8234847573619795,4.267869504436196,484.88654790956355,599.3663632114367
1.70894504400864E12,1.7717391304347825,-6.369565217391304,3.7391304347826084,3.437388949082965,0.8420200159573574,4.279408965040322,484.8843842607003,599.3701135361331
1.7089450440281716E12,1.7826086956521738,-6.391304347826087,3.608695652173913,3.4406344223778755,0.849376422092488,4.2900108444703635,484.8825812199809,599.3811481453357
1.7089450440477036E12,1.8043478260869565,-6.369565217391304,3.6630434782608696,3.442509584726046,0.8475012597443174,4.2900108444703635,484.88445638232906,599.3680941305273
1.7089450440672354E12,1.7391304347826086,-6.391304347826087,3.7065217391304346,3.441572003551961,0.8529825035312775,4.294554507083238,484.8845285039578,599.3774699422681
1.7089450440867673E12,1.7826086956521738,-6.369565217391304,3.6304347826086953,3.446332031051163,0.8405775833818416,4.286909614433005,484.883518801155,599.3668680628381
1.7089450441062993E12,1.7717391304347825,-6.391304347826087,3.641304347826087,3.4391919898023597,0.8420200159573574,4.281212005759717,484.8867642744499,599.360160751362
1.708945044125831E12,1.8043478260869565,-6.369565217391304,3.7065217391304346,3.4478465852554545,0.8271629604295447,4.275009545684999,484.88402365255644,599.3599443864756
1.708945044145363E12,1.7717391304347825,-6.358695652173913,3.7391304347826084,3.4537605588150693,0.8216817166425847,4.275442275457654,484.8822927334658,599.3551843589764
1.708945044164895E12,1.7826086956521738,-6.33695652173913,3.6956521739130435,3.4530393425273114,0.8200229191807415,4.273062261708053,484.88784609888154,599.360160751362
1.7089450441844268E12,1.7608695652173914,-6.358695652173913,3.641304347826087,3.4505150855201587,0.8184362433476742,4.268951328867833,484.8836630444125,599.3504964531061
1.7089450442039587E12,1.7934782608695652,-6.358695652173913,3.652173913043478,3.443519287528907,0.8229799059605489,4.266499193489456,484.8831581930111,599.3461691553795
1.7089450442234905E12,1.75,-6.358695652173913,3.652173913043478,3.4498659908611766,0.8170659324009342,4.266931923262111,484.8842400174427,599.3481885609852
1.7089450442430225E12,1.7282608695652173,-6.380434782608695,3.7065217391304346,3.4465483959374903,0.8164889593707279,4.263037355308218,484.883518801155,599.3475394663262
1.7089450442625544E12,1.7391304347826086,-6.358695652173913,3.6739130434782608,3.4427980712411492,0.8169938107721575,4.259791882013307,484.88149939554927,599.3475394663262
1.7089450442820862E12,1.7934782608695652,-6.380434782608695,3.6739130434782608,3.4549866265042577,0.8094931613794762,4.264479787883734,484.8819321253219,599.3385242627293
1.7089450443016182E12,1.8478260869565217,-6.423913043478261,3.6630434782608696,3.4478465852554545,0.8254320413389258,4.27327862659438,484.8825812199809,599.3357836408358
1.7089450443211501E12,1.8478260869565217,-6.423913043478261,3.641304347826087,3.438759260029705,0.8405054617530658,4.279264721782771,484.88359092278375,599.3411206413651
1.708945044340682E12,1.7826086956521738,-6.423913043478261,3.641304347826087,3.419358541889017,0.9029627922729011,4.322321334161918,484.8852497202456,599.3720608201099
1.7089450443602139E12,1.7391304347826086,-6.380434782608695,3.652173913043478,3.3425490072427997,0.9458030397657207,4.28835204700852,484.88510547698803,599.3468182500385
1.7089450443797456E12,1.7391304347826086,-6.293478260869565,3.717391304347826,3.3761576862523186,0.8896202909493796,4.265777977201698,484.8849612337305,599.3291484509884
1.7089450443992776E12,1.7717391304347825,-6.3478260869565215,3.652173913043478,3.4222434070400487,0.8565885849700674,4.278831992010116,484.8819321253219,599.3275617751553
1.7089450444188096E12,1.7826086956521738,-6.3478260869565215,3.5978260869565215,3.466814573623487,0.8050216203953773,4.2718361940188645,484.88373516604133,599.3318890728818
1.7089450444383413E12,1.8043478260869565,-6.326086956521739,3.652173913043478,3.4880904541123456,0.7845390778230525,4.272629531935398,484.8829418281248,599.3246047883755
1.7089450444578733E12,1.7934782608695652,-6.3478260869565215,3.6956521739130435,3.4970335360805436,0.778552982634662,4.275586518715206,484.88402365255644,599.3333315054574
1.7089450444774053E12,1.7826086956521738,-6.380434782608695,3.6739130434782608,3.3574781843993886,0.9084440360598611,4.26592222045925,484.88597093653334,599.4847869258865
1.708945044496937E12,1.75,-6.413043478260869,3.717391304347826,2.48891740905254,1.7084892640697076,4.197406673122248,484.89166854520664,599.3042664890608
1.708945044516469E12,1.7282608695652173,-6.4021739130434785,3.684782608695652,3.343630831674437,0.866685612998678,4.210316444673115,484.8796963548299,599.179712436165
1.7089450445360007E12,1.7717391304347825,-6.434782608695652,3.608695652173913,3.358776373717353,0.8856536013667107,4.2444299750840635,484.8807060576327,599.4110786212777
1.7089450445555327E12,1.7717391304347825,-6.380434782608695,3.7717391304347827,3.429744056432731,0.8997894406067664,4.329533497039497,484.88387940929886,599.4055973774907
1.7089450445750647E12,1.7826086956521738,-6.369565217391304,3.5978260869565215,3.4301767862053856,0.9062082655678116,4.336385051773197,484.879984841345,599.4233392981696
1.7089450445945964E12,1.8152173913043477,-6.369565217391304,3.652173913043478,3.419430663517793,0.928710213745858,4.348140877263651,484.8809945441478,599.424781730745
1.7089450446141284E12,1.8695652173913042,-6.326086956521739,3.652173913043478,3.4040687565885492,0.9328211465860785,4.336889903174628,484.87976847645865,599.446346097749
1.7089450446336604E12,1.8369565217391304,-6.33695652173913,3.7065217391304346,3.393466877158508,0.947750323742667,4.341217200901175,484.878686652027,599.4456970030901
1.7089450446531921E12,1.8152173913043477,-6.358695652173913,3.717391304347826,3.35488180576346,0.9707571233221444,4.3256389290856045,484.8802733278601,599.4879602775527
1.708945044672724E12,1.8369565217391304,-6.391304347826087,3.6630434782608696,3.3282689247451933,0.9843159895319924,4.312584914277186,484.8763787599062,599.4868063314923
1.7089450446922559E12,1.8043478260869565,-6.423913043478261,3.6739130434782608,3.273528608504368,1.0069621809675913,4.280490789471959,484.8794078683148,599.5695298396981
1.7089450447117878E12,1.8478260869565217,-6.423913043478261,3.7391304347826084,3.2508102954399942,1.017347695511305,4.268157990951299,484.87847028714066,599.6034270052227
1.7089450447313198E12,1.8478260869565217,-6.391304347826087,3.684782608695652,3.2285247121482747,1.0327096024405487,4.261234314588823,484.87450359755803,599.59946031564
1.7089450447508516E12,1.858695652173913,-6.369565217391304,3.6739130434782608,3.304829395393061,1.0050148969906445,4.309844292383706,484.8754411787321,599.4506012738468
1.7089450447703835E12,1.8369565217391304,-6.3478260869565215,3.6630434782608696,3.3768789025400765,0.9555394596504523,4.332418362190529,484.8755854219896,599.3805711723055
1.7089450447899155E12,1.8478260869565217,-6.358695652173913,3.7282608695652173,3.4220270421537213,0.8969766970845097,4.319003739238231,484.87933574668597,599.3370818301537
1.7089450448094473E12,1.826086956521739,-6.391304347826087,3.6739130434782608,3.4365956111664313,0.8779365870877007,4.314532198254132,484.87774907085293,599.338956992502
1.7089450448289792E12,1.8695652173913042,-6.380434782608695,3.6956521739130435,3.4346483271894845,0.881759033412818,4.316407360602303,484.87904726017086,599.3429236820846
1.708945044848511E12,1.8369565217391304,-6.445652173913043,3.684782608695652,3.4329174080988656,0.8715898837554317,4.304507291854297,484.878686652027,599.3383078978429
1.708945044868043E12,1.8369565217391304,-6.369565217391304,3.641304347826087,3.436379246280104,0.8817590334128176,4.3181382796929215,484.8802012062313,599.3401109385624
1.708945044887575E12,1.7934782608695652,-6.391304347826087,3.7065217391304346,3.4376053139692924,0.8840669255336429,4.321672239502935,484.8785424087695,599.338956992502
1.7089450449071067E12,1.7934782608695652,-6.358695652173913,3.6630434782608696,3.45015447737628,0.8784414384891321,4.328595915865412,484.8804175711176,599.3224411395122
1.7089450449266387E12,1.826086956521739,-6.358695652173913,3.6739130434782608,3.440490179120324,0.8643777208778523,4.304867899998176,484.87645088153494,599.33023027542
1.7089450449461707E12,1.8478260869565217,-6.380434782608695,3.6956521739130435,3.4399132060901176,0.8640171127339733,4.303930318824091,484.88005696297375,599.325398126292
1.7089450449657024E12,1.8804347826086956,-6.391304347826087,3.6956521739130435,3.4598187756322356,0.8459145839112501,4.305733359543486,484.8789751385421,599.315445341521
1.7089450449852344E12,1.9021739130434783,-6.391304347826087,3.6956521739130435,3.4649394112753167,0.83632240728407,4.301261818559387,484.88005696297375,599.3072234758406
1.708945045004766E12,1.858695652173913,-6.380434782608695,3.6739130434782608,3.450010234118728,0.8487994490622817,4.29880968318101,484.8829418281248,599.3103968275067
1.708945045024298E12,1.8804347826086956,-6.358695652173913,3.641304347826087,3.4614775730940788,0.8377648398595858,4.299242412953665,484.88121090903417,599.3090265165599
1.70894504504383E12,1.858695652173913,-6.315217391304348,3.6739130434782608,3.4678963980551245,0.8262975008842348,4.294193898939359,484.8798405980874,599.3098919761053
1.7089450450633618E12,1.858695652173913,-6.358695652173913,3.7065217391304346,3.4822486021815067,0.8225471761878937,4.3047957783694,484.8802733278601,599.3104689491355
1.7089450450828938E12,1.8369565217391304,-6.358695652173913,3.7282608695652173,3.4826092103253856,0.8191574596354316,4.301766669960817,484.88005696297375,599.3060695297802
1.7089450451024258E12,1.8804347826086956,-6.3478260869565215,3.717391304347826,3.487657724339691,0.8151186484239874,4.302776372763678,484.87760482759535,599.3057089216362
1.7089450451219575E12,1.8695652173913042,-6.33695652173913,3.6956521739130435,3.486287413392951,0.8155513781966421,4.301838791589593,484.8796963548299,599.2948185556911
1.7089450451414895E12,1.858695652173913,-6.3478260869565215,3.7282608695652173,3.4988365767999388,0.8014876605853627,4.3003242373853015,484.88063393600396,599.3056368000075
1.7089450451610212E12,1.858695652173913,-6.358695652173913,3.717391304347826,3.486864386423157,0.8282447848611811,4.315109171284338,484.8788308952846,599.288760338874
1.7089450451805532E12,1.8369565217391304,-6.380434782608695,3.6739130434782608,3.4719352092665687,0.8532709900463811,4.32520619931295,484.88149939554927,599.3003719211068
1.7089450452000852E12,1.7934782608695652,-6.413043478260869,3.717391304347826,3.419719150032896,0.898923981061456,4.318643131094352,484.8848169904729,599.3289320861021
1.708945045219617E12,1.7934782608695652,-6.423913043478261,3.7717391304347827,3.4047178512475313,0.9438557557887743,4.348573607036306,484.8831581930111,599.288111244215
1.708945045239149E12,1.7717391304347825,-6.413043478260869,3.717391304347826,3.432412556697435,0.8299035823230252,4.26231613902046,484.8823648550946,599.3056368000075
1.708945045258681E12,1.7608695652173914,-6.391304347826087,3.6630434782608696,3.515208186532043,0.78663060505755,4.301838791589593,484.8807060576327,599.2948185556911
1.7089450452782126E12,1.7717391304347825,-6.33695652173913,3.717391304347826,3.544489567815014,0.75150737184374,4.295996939658754,484.8825812199809,599.3046992188334
1.7089450452977446E12,1.7934782608695652,-6.33695652173913,3.7717391304347827,3.5405949998611215,0.7301593697261062,4.270754369587228,484.8812830306629,599.3024634483413
1.7089450453172764E12,1.7717391304347825,-6.326086956521739,3.7391304347826084,3.584517071785578,0.7709080899844278,4.355425161770006,484.88243697672334,599.3039058809169
1.7089450453368083E12,1.7826086956521738,-6.33695652173913,3.717391304347826,2.92258476288137,1.4112039102558986,4.333788673137269,484.8931830994109,599.5101737392156
1.7089450453563403E12,1.7826086956521738,-6.33695652173913,3.7391304347826084,2.596955608958675,1.6544701641166402,4.251425773075315,484.89044247751747,599.0201793933129
1.708945045375872E12,1.7608695652173914,-6.358695652173913,3.6630434782608696,3.4037081484446703,0.6892664062102329,4.092974554654903,484.88784609888154,599.3422024657968
1.708945045395404E12,1.7717391304347825,-6.369565217391304,3.7717391304347827,3.478354034227614,0.8343030016783475,4.3126570359059615,484.88719700422257,599.3851148349185
1.708945045414936E12,1.7391304347826086,-6.380434782608695,3.760869565217391,3.5046784287307777,0.8149022835376596,4.319580712268437,484.8908752072901,599.4039385800289
1.7089450454344678E12,1.7065217391304348,-6.3478260869565215,3.7065217391304346,3.508356631798343,0.8180756352037952,4.326432267002138,484.88842307191175,599.4002603769613
1.7089450454539998E12,1.8152173913043477,-6.33695652173913,3.717391304347826,3.494148670929512,0.8260090143691317,4.320157685298644,484.88986550448726,599.411294986164
1.7089450454735315E12,1.7608695652173914,-6.33695652173913,3.75,3.4818879940376277,0.8483667192896274,4.330254713327255,484.89015399100236,599.4333642045694
1.7089450454930635E12,1.7608695652173914,-6.380434782608695,3.75,3.461044843321424,0.8498091518651427,4.310853995186567,484.89325522103974,599.4562988825201
1.7089450455125955E12,1.7826086956521738,-6.358695652173913,3.7282608695652173,3.423180988214134,0.8524055305010716,4.275586518715206,484.8917406668354,599.5035385493683
1.7089450455321272E12,1.7391304347826086,-6.358695652173913,3.7391304347826084,3.395269917877903,0.8787299250042353,4.273999842882138,484.8950582617591,599.5332526604238
1.7089450455516592E12,1.75,-6.423913043478261,3.7065217391304346,3.3450732642499528,0.8814705468977149,4.226543811147668,484.89412068058505,599.6144616144254
1.7089450455711912E12,1.7608695652173914,-6.3478260869565215,3.75,3.306920922627559,0.9090210090900674,4.2159419317176265,484.8974382755087,599.6209525610152
1.708945045590723E12,1.75,-6.326086956521739,3.7391304347826084,3.3605794144367476,0.8861584527681412,4.246737867204889,484.8995298027432,599.5172416588357
1.708945045610255E12,1.7608695652173914,-6.33695652173913,3.7282608695652173,3.441211395408082,0.8200229191807415,4.261234314588823,484.89556311316056,599.4230508116544
1.7089450456297866E12,1.75,-6.33695652173913,3.7282608695652173,3.5007117391481093,0.7812214828993658,4.281933222047475,484.8999625325159,599.3662910898079
1.7089450456493186E12,1.7282608695652173,-6.3478260869565215,3.782608695652174,3.5392968105431573,0.7201344633262705,4.259431273869428,484.9040734653561,599.3447988444327
1.7089450456688506E12,1.75,-6.3478260869565215,3.6739130434782608,3.5358349723619193,0.7184756658644273,4.254310638226347,484.901837694864,599.3481164393564
1.7089450456883823E12,1.75,-6.315217391304348,3.8369565217391304,3.54593200039053,0.706936205260301,4.252868205650831,484.8968613024785,599.3652813870051
1.7089450457079143E12,1.7608695652173914,-6.315217391304348,3.684782608695652,3.543840473156032,0.6953967446561746,4.239237217812207,484.8991691945993,599.3625407651116
1.7089450457274463E12,1.7608695652173914,-6.33695652173913,3.75,3.5408834863762246,0.7176102063191179,4.2584936926953425,484.8999625325159,599.3650650221188
1.708945045746978E12,1.75,-6.369565217391304,3.7717391304347827,3.5557405419040373,0.6790972565528461,4.2348377984568835,484.90118860020505,599.3637668328008
1.70894504576651E12,1.7934782608695652,-6.369565217391304,3.760869565217391,3.5484562573976826,0.6951803797698473,4.24363663716753,484.901837694864,599.363045616513
1.7089450457860417E12,1.7717391304347825,-6.369565217391304,3.75,3.5434077433833773,0.6691444717817872,4.212552215165164,484.9045783167575,599.3632619813993
1.7089450458055737E12,1.7717391304347825,-6.380434782608695,3.7391304347826084,3.554802960729952,0.655801970458266,4.210604931188218,484.90328012743953,599.3577086159836
1.7089450458251057E12,1.7391304347826086,-6.358695652173913,3.75,3.543551986640929,0.6655383903429977,4.2090903769839265,484.90450619512876,599.367877765641
1.7089450458446375E12,1.75,-6.315217391304348,3.7282608695652173,3.558553285426293,0.653421956708665,4.211975242134958,484.90587650607546,599.3558334536355
1.7089450458641694E12,1.75,-6.326086956521739,3.684782608695652,3.5688666783412315,0.6396467256124887,4.20851340395372,484.9028473976669,599.3573480078397
1.7089450458837014E12,1.8043478260869565,-6.33695652173913,3.652173913043478,3.560356326145688,0.656162578602145,4.216518904747833,484.899601924372,599.3652813870051
1.7089450459032332E12,1.7717391304347825,-6.33695652173913,3.684782608695652,3.5627363398952894,0.6314248599320478,4.194161199827337,484.90385710046974,599.3763159962077
1.7089450459227651E12,1.8043478260869565,-6.3478260869565215,3.717391304347826,3.5664866645916304,0.6229866293652804,4.189473293956911,484.9021261813791,599.3598001432181
1.7089450459422969E12,1.8043478260869565,-6.33695652173913,3.7065217391304346,3.560356326145688,0.6345260899694072,4.194882416115095,484.90587650607546,599.3763881178365
1.7089450459618289E12,1.8043478260869565,-6.3478260869565215,3.6739130434782608,3.564250894099581,0.6466425236037403,4.210893417703321,484.90450619512876,599.3818693616234
1.7089450459813608E12,1.8152173913043477,-6.3478260869565215,3.7065217391304346,3.5511247576623868,0.6857324464002188,4.236857204062606,484.9005395055461,599.3764602394654
1.7089450460008926E12,1.7826086956521738,-6.358695652173913,3.717391304347826,3.4625593975257156,0.7552576965400815,4.217817094065797,484.9015492083489,599.3708347524208
1.7089450460204246E12,1.7934782608695652,-6.358695652173913,3.6956521739130435,3.4836910347570225,0.7125616923048126,4.196252727061835,484.90118860020505,599.3598722648469
1.7089450460399565E12,1.7717391304347825,-6.391304347826087,3.717391304347826,3.542542283838068,0.6449116045131209,4.187453888351189,484.9012607218338,599.3689595900727
1.7089450460594883E12,1.7934782608695652,-6.391304347826087,3.684782608695652,3.578242490082084,0.5868536933486097,4.165096183430694,484.89707766736484,599.3509291828786
1.7089450460790203E12,1.8043478260869565,-6.358695652173913,3.684782608695652,3.589204977656004,0.5702657187301781,4.159470696386182,484.9010443569475,599.3598722648469
1.708945046098552E12,1.8152173913043477,-6.391304347826087,3.7065217391304346,3.6078123578801584,0.5787760709257208,4.186588428805879,484.8971497889936,599.370474144277
1.708945046118084E12,1.7934782608695652,-6.380434782608695,3.717391304347826,3.6015377761766647,0.6096441280417597,4.211181904218424,484.89794312691015,599.4507455171043
1.708945046137616E12,1.8043478260869565,-6.380434782608695,3.7065217391304346,2.5670972546454975,1.57138604776693,4.1384833024124275,484.90219830300794,599.3108295572794
1.7089450461571477E12,1.8043478260869565,-6.358695652173913,3.6956521739130435,3.3445684128485222,1.0153282899055824,4.359896702754105,484.8921733966081,599.0459268147858
1.7089450461766797E12,1.8369565217391304,-6.4021739130434785,3.619565217391304,3.4981153605121804,0.6607062412150198,4.1588216017272,484.89433704547133,599.4560825176338
1.7089450461962117E12,1.7608695652173914,-6.380434782608695,3.8152173913043477,3.549610203458095,0.6682790122364777,4.217889215694573,484.89253400475195,599.451827341536
1.7089450462157434E12,1.8043478260869565,-6.369565217391304,3.5978260869565215,3.561438150577325,0.6573165246625572,4.218754675239882,484.8914521803203,599.4539188687705
1.7089450462352754E12,1.7934782608695652,-6.380434782608695,3.641304347826087,3.5402343917172425,0.6917906632173851,4.232025054934628,484.8914521803203,599.4692807756998
1.7089450462548071E12,1.8369565217391304,-6.380434782608695,3.641304347826087,3.5360513372482467,0.6888336764375778,4.2248850136858245,484.8951303833879,599.4873111828937
1.708945046274339E12,1.7826086956521738,-6.358695652173913,3.7391304347826084,3.521122160091658,0.7085228810933688,4.229645041185027,484.8927503696383,599.5089476715265
1.708945046293871E12,1.7826086956521738,-6.4021739130434785,3.7065217391304346,3.496528684679113,0.7212162877579082,4.217744972437021,484.89109157217644,599.5251029163722
1.7089450463134028E12,1.7934782608695652,-6.391304347826087,3.6956521739130435,3.45974665400346,0.7349193972253079,4.194666051228768,484.8890721665707,599.5887863145813
1.7089450463329348E12,1.7934782608695652,-6.423913043478261,3.6739130434782608,3.4085402975726486,0.7608831835845926,4.169423481157241,484.8886394367981,599.6338623325661
1.7089450463524668E12,1.8043478260869565,-6.4021739130434785,3.6630434782608696,3.371397658753116,0.7752353877109757,4.146633046464092,484.8890721665707,599.6795153235812
1.7089450463719985E12,1.8043478260869565,-6.358695652173913,3.684782608695652,3.3540884678469265,0.7869912132014294,4.141079681048356,484.8937600724411,599.6570854970319
1.7089450463915305E12,1.7934782608695652,-6.326086956521739,3.641304347826087,3.425633123592511,0.7582146833198884,4.183847806912399,484.8891442881995,599.5458739454597
1.7089450464110623E12,1.7826086956521738,-6.3478260869565215,3.6739130434782608,3.5255937010757568,0.6776548239773308,4.2032485250530875,484.8908752072901,599.4375472590384
1.7089450464305942E12,1.7717391304347825,-6.33695652173913,3.717391304347826,3.5675684890232673,0.6350309413708382,4.202599430394105,484.8915964235779,599.4101410401036
1.7089450464501262E12,1.7826086956521738,-6.391304347826087,3.760869565217391,3.5763673277339136,0.6061822898605214,4.182549617594435,484.88712488259375,599.3947070115456
1.708945046469658E12,1.7934782608695652,-6.391304347826087,3.6630434782608696,3.582786152694959,0.6061101682317456,4.1888963209267045,484.88726912585133,599.4048040395742
1.70894504648919E12,1.8152173913043477,-6.380434782608695,3.7282608695652173,3.57694430076412,0.6116635336474814,4.188607834411601,484.8920291533505,599.409996796846
1.708945046508722E12,1.8043478260869565,-6.358695652173913,3.5760869565217392,3.5850219231870084,0.614836885313617,4.199858808500625,484.89015399100236,599.402279782567
1.7089450465282537E12,1.7826086956521738,-6.3478260869565215,3.7391304347826084,3.578675219854739,0.6232029942516086,4.2018782141063475,484.8880624637679,599.392976092455
1.7089450465477856E12,1.7826086956521738,-6.358695652173913,3.75,3.5777376386806536,0.6212557102746623,4.198993348955316,484.8879182205103,599.3981688497269
1.7089450465673174E12,1.7826086956521738,-6.369565217391304,3.782608695652174,3.577881881938205,0.6113029255036024,4.189184807441808,484.88625942304844,599.3956445927197
1.7089450465868494E12,1.7826086956521738,-6.413043478260869,3.717391304347826,3.5784588549684115,0.6153417367150467,4.193800591683458,484.8877739772528,599.3921106329096
1.7089450466063813E12,1.75,-6.434782608695652,3.760869565217391,3.5802618956878063,0.6039465193684719,4.184208415056278,484.8915964235779,599.3838887672292
1.708945046625913E12,1.7717391304347825,-6.4021739130434785,3.782608695652174,3.5815600850057705,0.6009174109598887,4.182477495965659,484.88330243626865,599.3830233076839
1.708945046645445E12,1.7608695652173914,-6.380434782608695,3.717391304347826,3.572400638151245,0.6107980741021719,4.183198712253417,484.8874854907377,599.3722771849963
1.708945046664977E12,1.75,-6.4021739130434785,3.7065217391304346,3.582353422922304,0.5992586134980455,4.18161203642035,484.89015399100236,599.3692480765877
1.7089450466845088E12,1.7717391304347825,-6.380434782608695,3.8260869565217392,3.5805503822029094,0.5869258149773855,4.167476197180295,484.8879182205103,599.363983197687
1.7089450467040408E12,1.7608695652173914,-6.391304347826087,3.8152173913043477,3.5716794218634873,0.608345938723795,4.180025360587282,484.8873412474801,599.3611704541648
1.7089450467235725E12,1.75,-6.358695652173913,3.7282608695652173,3.57420367887064,0.6126732364503424,4.186876915320982,484.89311097778216,599.3623244002252
1.7089450467431045E12,1.75,-6.3478260869565215,3.8478260869565215,3.578675219854739,0.6177938720934235,4.196469091948162,484.891884910093,599.3596558999606
1.7089450467626365E12,1.7391304347826086,-6.33695652173913,3.8043478260869565,3.556245393305468,0.6617159440178808,4.217961337323349,484.898303735054,599.384609983517
1.7089450467821682E12,1.8043478260869565,-6.326086956521739,3.8260869565217392,3.497971117254629,0.7332605997634651,4.231231717018094,484.8959958429332,599.3717723335949
1.7089450468017002E12,1.7934782608695652,-6.33695652173913,3.902173913043478,3.478642520742717,0.7577098319184579,4.236352352661175,484.89967404600077,599.3454479390917
1.7089450468212322E12,1.7826086956521738,-6.358695652173913,3.8804347826086953,3.5065535910789483,0.6589032004956246,4.165456791574573,484.9076795467949,599.3726377931401
1.708945046840764E12,1.7391304347826086,-6.369565217391304,3.793478260869565,3.5701648676591957,0.624140575425693,4.194305443084889,484.9076074251661,599.3518667640527
1.708945046860296E12,1.7608695652173914,-6.33695652173913,3.760869565217391,3.5770885440216715,0.596013140203135,4.1731016842248065,484.9087613712265,599.34436611466
1.7089450468798276E12,1.7608695652173914,-6.33695652173913,3.8152173913043477,3.5871134504215063,0.5849064093716634,4.17201985979317,484.90587650607546,599.3548237508326
1.7089450468993596E12,1.75,-6.391304347826087,3.760869565217391,3.6032686952672837,0.6552971190568346,4.258565814324118,484.91481958804366,599.43862908347
1.7089450469188916E12,1.75,-6.4021739130434785,3.8043478260869565,2.951289171134135,1.3889183269641792,4.340207498098314,484.92325781861047,599.5029615763381
1.7089450469384233E12,1.75,-6.369565217391304,3.7391304347826084,3.2961747999399664,1.0842765670152383,4.380451366955205,484.92066143997454,599.0392195033097
1.7089450469579553E12,1.7608695652173914,-6.369565217391304,3.7282608695652173,3.4436635307864587,0.5712754215330391,4.014938952319498,484.9219596292925,599.4014143230218
1.7089450469774873E12,1.7608695652173914,-6.315217391304348,3.9565217391304346,3.515496673047146,0.7040513401092698,4.219548013156416,484.9266475351629,599.4268011363508
1.708945046997019E12,1.7717391304347825,-6.358695652173913,3.782608695652174,3.5198960924024694,0.7073689350329562,4.2272650274354255,484.93075846800315,599.4342296641147
1.708945047016551E12,1.826086956521739,-6.282608695652174,3.7065217391304346,3.515496673047146,0.7142204897666562,4.229717162813802,484.9329221168664,599.4394224213866
1.7089450470360828E12,1.7608695652173914,-6.293478260869565,3.782608695652174,3.50121659054954,0.7440788440798332,4.245295434629373,484.935951225275,599.4533418957403
1.7089450470556147E12,1.7826086956521738,-6.33695652173913,3.7282608695652173,3.4877298459684667,0.7579261968047852,4.245656042773252,484.94020640137273,599.4592558692999
1.7089450470751467E12,1.7717391304347825,-6.369565217391304,3.7282608695652173,3.4484956799144366,0.7704753602117731,4.21897104012621,484.9431633881526,599.511327685276
1.7089450470946785E12,1.7717391304347825,-6.369565217391304,3.7391304347826084,3.4223876502976003,0.7778317663469041,4.200219416644504,484.9462646181899,599.5372193500066
1.7089450471142104E12,1.7608695652173914,-6.4021739130434785,3.75,3.371397658753116,0.8130271211894895,4.1844247799426055,484.95275556477975,599.5726310697355
1.7089450471337424E12,1.7608695652173914,-6.369565217391304,3.782608695652174,3.32386950538987,0.8122337832729563,4.136103288662826,484.9552077001581,599.6520369830176
1.7089450471532742E12,1.7717391304347825,-6.358695652173913,3.8152173913043477,3.285717163767477,0.8376927182308096,4.1234098819982865,484.95996772765733,599.649656969268
1.7089450471728062E12,1.7608695652173914,-6.358695652173913,3.7282608695652173,3.370099469435152,0.8102143776672337,4.1803138471023855,484.9594628762559,599.5205592537593
1.708945047192338E12,1.7391304347826086,-6.282608695652174,3.684782608695652,3.4321961918111077,0.7590080212364221,4.19120421304753,484.96040045742996,599.4423072865376
1.7089450472118699E12,1.7391304347826086,-6.282608695652174,3.75,3.4966729279366646,0.6857324464002188,4.182405374336883,484.96155440349037,599.3861245377212
1.7089450472314019E12,1.75,-6.326086956521739,3.8043478260869565,3.500423252633006,0.6836409191657205,4.184064171798727,484.9644392686414,599.3776863071545
1.7089450472509336E12,1.7717391304347825,-6.326086956521739,3.717391304347826,3.500134766117903,0.661138970987674,4.161273737105577,484.96609806610326,599.378191158556
1.7089450472704656E12,1.8043478260869565,-6.3478260869565215,3.7717391304347827,3.5066978343365,0.661499579131553,4.168197413468053,484.96790110682264,599.3688874684439
1.7089450472899976E12,1.75,-6.260869565217391,3.6304347826086953,3.5005674958905577,0.6670529445472888,4.1676204404378465,484.9720120396629,599.3674450358683
1.7089450473095293E12,1.8043478260869565,-6.260869565217391,3.7282608695652173,3.5006396175193335,0.6868142708318552,4.187453888351189,484.97237264780676,599.3634783462857
1.7089450473290613E12,1.8152173913043477,-6.293478260869565,3.6956521739130435,3.4996299147164724,0.6833524326506173,4.18298234736709,484.9705696070874,599.360160751362
1.708945047348593E12,1.826086956521739,-6.326086956521739,3.608695652173913,3.495230495361149,0.6880403385210441,4.183270833882193,484.96912717451187,599.3612425757937
1.708945047368125E12,1.7934782608695652,-6.271739130434782,3.6304347826086953,3.487008629680709,0.6885451899224746,4.175553819603183,484.9671798905349,599.3578528592411
1.708945047387657E12,1.8043478260869565,-6.315217391304348,3.6304347826086953,3.479363737030475,0.6965506907165873,4.175914427747062,484.9684059582241,599.3535976831433
1.7089450474071887E12,1.7717391304347825,-6.315217391304348,3.6956521739130435,3.4878740892260183,0.6783039186363125,4.166178007862331,484.9712908233751,599.3506406963636
1.7089450474267207E12,1.8152173913043477,-6.315217391304348,3.7065217391304346,3.4877298459684667,0.6850112301124609,4.172741076080928,484.9686944447392,599.3423467090544
1.7089450474462527E12,1.8152173913043477,-6.315217391304348,3.684782608695652,3.488955913657655,0.6834245542793935,4.172380467937049,484.9663144309896,599.3428515604558
1.7089450474657844E12,1.8152173913043477,-6.3478260869565215,3.684782608695652,3.476695236765771,0.6819100000751019,4.158605236840873,484.9640065388688,599.3388127492443
1.7089450474853164E12,1.7826086956521738,-6.3478260869565215,3.6630434782608696,3.4757576555916856,0.6949640148835199,4.1707216704752055,484.963285322581,599.3309514917078
1.7089450475048481E12,1.7826086956521738,-6.33695652173913,3.641304347826087,3.473594006728412,0.7245338826815946,4.1981278894100065,484.96342956583857,599.3208544636792
1.7089450475243801E12,1.7826086956521738,-6.413043478260869,3.6304347826086953,3.4267149480241477,0.7715571846434104,4.198272132667558,484.96379017398243,599.3471788581824
1.708945047543912E12,1.8152173913043477,-6.391304347826087,3.619565217391304,3.4123627438977655,0.8115125669851979,4.223875310882963,484.96342956583857,599.3049877053485
1.7089450475634438E12,1.8043478260869565,-6.423913043478261,3.6739130434782608,3.4109203113222497,0.7605225754407137,4.171442886762963,484.9627804711796,599.3214314367094
1.7089450475829758E12,1.7934782608695652,-6.4021739130434785,3.6304347826086953,3.486936508051933,0.6835687975369451,4.170505305588878,484.9621313765206,599.3272011670115
1.7089450476025078E12,1.7826086956521738,-6.4021739130434785,3.5652173913043477,3.4884510622562246,0.658903200495625,4.14735426275185,484.9558567948171,599.3354951543207
1.7089450476220396E12,1.7934782608695652,-6.369565217391304,3.6304347826086953,3.5007117391481093,0.6576771328064361,4.158388871954545,484.9558567948171,599.3409042764788
1.7089450476415715E12,1.7826086956521738,-6.380434782608695,3.6739130434782608,3.5323731341806814,0.698353731435982,4.2307268656166634,484.9528998080373,599.3413370062515
1.7089450476611033E12,1.8043478260869565,-6.391304347826087,3.5869565217391304,2.907871950611109,1.4876528367582367,4.395524787369346,484.9537652675826,599.4520437064224
1.7089450476806353E12,1.7934782608695652,-6.413043478260869,3.5978260869565215,2.7569935032121546,1.5951861852629405,4.352179688475095,484.95600103807465,599.0575383970188
1.7089450477001672E12,1.8152173913043477,-6.4021739130434785,3.5543478260869565,3.403131175414464,0.6689281068954593,4.072059282309923,484.9485725103107,599.278446945959
1.708945047719699E12,1.8478260869565217,-6.434782608695652,3.684782608695652,3.4417162468095124,0.7873518213453079,4.22906806815482,484.9496543347424,599.4088428507856
1.708945047739231E12,1.7282608695652173,-6.434782608695652,3.5978260869565215,3.453472072299966,0.7814378477856931,4.234909920085659,484.94705795610645,599.4069676884375
1.708945047758763E12,1.826086956521739,-6.358695652173913,3.467391304347826,3.45974665400346,0.7973046061163669,4.257051260119827,484.9454712802734,599.4233392981696
1.7089450477782947E12,1.8152173913043477,-6.3478260869565215,3.5217391304347827,3.4407065440066513,0.8058870799406859,4.246593623947337,484.9466973479626,599.4392060565002
1.7089450477978267E12,1.8152173913043477,-6.3478260869565215,3.5652173913043477,3.4222434070400487,0.8326442042165043,4.254887611256553,484.9446058207281,599.4516109766497
1.7089450478173584E12,1.8043478260869565,-6.391304347826087,3.5652173913043477,3.4072421082546844,0.833076933989159,4.2403190422438435,484.9428749016375,599.4636552886552
1.7089450478368904E12,1.8152173913043477,-6.4021739130434785,3.543478260869565,3.3708928073516855,0.8497370302363674,4.220629837588053,484.9456876451597,599.5199822807291
1.7089450478564224E12,1.8152173913043477,-6.456521739130435,3.5217391304347827,3.320191302322305,0.8878172502299848,4.20800855255229,484.947202199364,599.5672219475773
1.708945047875954E12,1.8043478260869565,-6.445652173913043,3.532608695652174,3.283697758161755,0.8925772777291865,4.176275035890941,484.9498706996287,599.6115046276456
1.708945047895486E12,1.8043478260869565,-6.445652173913043,3.532608695652174,3.247348457258756,0.9230847267013464,4.170433183960102,484.9458318884173,599.6220343854469
1.708945047915018E12,1.826086956521739,-6.434782608695652,3.5217391304347827,3.2948044889932264,0.9058476574239327,4.200652146417159,484.9433076314101,599.5334690253102
1.7089450479345498E12,1.8369565217391304,-6.380434782608695,3.5217391304347827,3.4040687565885492,0.8265138657705626,4.230582622359112,484.9397736716001,599.4085543642706
1.7089450479540818E12,1.7934782608695652,-6.369565217391304,3.5,3.448062950141782,0.7810051180130384,4.22906806815482,484.939485185085,599.3645601707173
1.7089450479736135E12,1.8152173913043477,-6.358695652173913,3.4891304347826084,3.470420655062277,0.752156466502722,4.222577121564999,484.94143246906197,599.3531649533708
1.7089450479931455E12,1.7934782608695652,-6.413043478260869,3.5217391304347827,3.4675357899112456,0.7383091137777704,4.205844903689016,484.93941306345624,599.3546073859462
1.7089450480126775E12,1.826086956521739,-6.4021739130434785,3.532608695652174,3.4751085609327035,0.745304911769022,4.2204134727017255,484.9379706308807,599.3495588719319
1.7089450480322092E12,1.8043478260869565,-6.4021739130434785,3.5,3.4738103716147393,0.7417709519590083,4.215581323573748,484.934653035957,599.3554007238628
1.7089450480517412E12,1.8043478260869565,-6.380434782608695,3.467391304347826,3.4686176143428824,0.7574213454033547,4.226038959746237,484.933066360124,599.3590068053015
1.7089450480712732E12,1.75,-6.434782608695652,3.5869565217391304,3.471141871350035,0.7572771021458031,4.228418973495838,484.9343645494419,599.3644159274597
1.708945048090805E12,1.8043478260869565,-6.4021739130434785,3.510869565217391,3.4719352092665687,0.749415844609242,4.221351053875811,484.93075846800315,599.3535255615146
1.708945048110337E12,1.8152173913043477,-6.445652173913043,3.543478260869565,3.474892196046376,0.7554740614264084,4.2303662574727845,484.93328272501026,599.3603049946196
1.7089450481298687E12,1.8043478260869565,-6.423913043478261,3.543478260869565,3.4810225344923182,0.7462424929431073,4.2272650274354255,484.9296766435715,599.3536698047722
1.7089450481494006E12,1.7717391304347825,-6.434782608695652,3.510869565217391,3.4779213044549593,0.7355684918842904,4.21348979633925,484.9254214674737,599.3428515604558
1.7089450481689326E12,1.7608695652173914,-6.391304347826087,3.543478260869565,3.4736661283571877,0.7362175865432725,4.20988371490046,484.9266475351629,599.3453758174629
1.7089450481884644E12,1.7717391304347825,-6.4021739130434785,3.532608695652174,3.4769116016520982,0.7428527763906452,4.219764378042743,484.9259984405039,599.3399666953047
1.7089450482079963E12,1.7717391304347825,-6.391304347826087,3.543478260869565,3.4746758311600487,0.738092748891443,4.212768580051492,484.92477237281474,599.3467461284097
1.7089450482275283E12,1.7934782608695652,-6.391304347826087,3.5,3.484195886158453,0.7317460455591736,4.2159419317176265,484.9257099539888,599.3375145599264
1.70894504824706E12,1.7717391304347825,-6.434782608695652,3.5652173913043477,3.4822486021815067,0.7463146145718831,4.22856321675339,484.93018149497294,599.3452315742054
1.708945048266592E12,1.7826086956521738,-6.423913043478261,3.5978260869565215,3.4720794525241203,0.7588637779788705,4.230943230502991,484.9345087926995,599.348260682614
1.7089450482861238E12,1.7826086956521738,-6.445652173913043,3.5652173913043477,3.4657327491918504,0.8169216891433826,4.282654438335233,484.92989300845784,599.3525879803406
1.7089450483056558E12,1.7934782608695652,-6.467391304347826,3.5760869565217392,3.399741458862002,0.8658201534533689,4.265561612315371,484.9302536166017,599.3606656027634
1.7089450483251877E12,1.7826086956521738,-6.478260869565217,3.5543478260869565,3.3991644858317955,0.8780808303452532,4.277245316177049,484.93090271126067,599.3297975456474
1.7089450483447195E12,1.7717391304347825,-6.456521739130435,3.652173913043478,3.42873435362987,0.7901645648675641,4.218898918497434,484.93184029243474,599.3495588719319
1.7089450483642515E12,1.7282608695652173,-6.413043478260869,3.641304347826087,3.4805176830908877,0.755257696540081,4.235775379630969,484.9358069820174,599.3474673446974
1.7089450483837834E12,1.7826086956521738,-6.423913043478261,3.652173913043478,3.4977547523683015,0.7179708144629977,4.215725566831299,484.9361675901613,599.3445103579177
1.7089450484033152E12,1.7717391304347825,-6.358695652173913,3.619565217391304,3.508645118313446,0.7217211391593383,4.2303662574727845,484.9361675901613,599.3388848708731
1.7089450484228472E12,1.7826086956521738,-6.3478260869565215,3.6630434782608696,3.5122511997522357,0.7929051867610437,4.305156386513279,484.93782638762315,599.4160550136633
1.708945048442379E12,1.8043478260869565,-6.369565217391304,3.608695652173913,2.8427461198265696,1.5685011826158983,4.411247302442468,484.9460482533036,599.4557219094899
1.708945048461911E12,1.7934782608695652,-6.369565217391304,3.5652173913043477,2.752089232455401,1.6427143386261869,4.394803571081588,484.9469858344777,599.0048174863837
1.7089450484814429E12,1.7934782608695652,-6.4021739130434785,3.5652173913043477,3.364906712163295,0.7282842073779356,4.093190919541231,484.947851294023,599.3722771849963
1.7089450485009746E12,1.7608695652173914,-6.358695652173913,3.8043478260869565,3.433133772985193,0.8543528144780179,4.287486587463211,484.94922160496975,599.4054531342332
1.7089450485205066E12,1.75,-6.369565217391304,3.5869565217391304,3.447990828513006,0.8475012597443174,4.2954920882573235,484.94749068587913,599.4135307566561
1.7089450485400386E12,1.75,-6.358695652173913,3.543478260869565,3.434864692075812,0.8669019778850053,4.301766669960817,484.95001494288624,599.4182907841553
1.7089450485595703E12,1.826086956521739,-6.3478260869565215,3.6304347826086953,3.4257052452212866,0.8740420191338085,4.299747264355095,484.9518179836057,599.428676298699
1.7089450485791023E12,1.7934782608695652,-6.358695652173913,3.641304347826087,3.4133724467006266,0.8907742370097917,4.304146683710418,484.9531161729236,599.4389896916139
1.708945048598634E12,1.7826086956521738,-6.413043478260869,3.6630434782608696,3.3964959855670913,0.900438535265748,4.296934520832839,484.9565058894761,599.4574528285805
1.708945048618166E12,1.8043478260869565,-6.380434782608695,3.652173913043478,3.3516363324685496,0.9152955907935612,4.266931923262111,484.95982348439975,599.5104622257307
1.708945048637698E12,1.7934782608695652,-6.358695652173913,3.6739130434782608,3.3077863821728686,0.9329653898436296,4.240751772016498,484.9632132009522,599.5581346223515
1.7089450486572297E12,1.7826086956521738,-6.369565217391304,3.6630434782608696,3.236674456199939,0.9625352576417043,4.199209713841643,484.9624919846645,599.6262174399159
1.7089450486767617E12,1.7826086956521738,-6.33695652173913,3.6630434782608696,3.219797995066404,0.9790511106313602,4.198849105697764,484.9644392686414,599.6153991955995
1.7089450486962937E12,1.7717391304347825,-6.369565217391304,3.6630434782608696,3.310454882437573,0.9456587965081686,4.256113678945741,484.96739625542125,599.4813972093341
1.7089450487158254E12,1.7826086956521738,-6.3478260869565215,3.641304347826087,3.385605619621947,0.8889711962903974,4.2745768159123445,484.96941566102697,599.4063185937785
1.7089450487353574E12,1.8043478260869565,-6.380434782608695,3.6739130434782608,3.4267149480241477,0.8423806241012368,4.2690955721253845,484.97006475568594,599.3489818989017
1.7089450487548892E12,1.7826086956521738,-6.413043478260869,3.6956521739130435,3.4460435445360598,0.8186526082340015,4.264696152770061,484.9764114590182,599.3369375868962
1.7089450487744211E12,1.7717391304347825,-6.4021739130434785,3.684782608695652,3.4523902478683293,0.8130992428182657,4.265489490686595,484.9746805399276,599.3349181812905
1.7089450487939531E12,1.7934782608695652,-6.358695652173913,3.75,3.4520296397244503,0.7988912819494343,4.250920921673885,484.97828662136635,599.3334757487149
1.7089450488134849E12,1.7826086956521738,-6.3478260869565215,3.6304347826086953,3.4540490453301724,0.8217538382713605,4.275802883601533,484.97799813485125,599.3212871934518
1.7089450488330168E12,1.8043478260869565,-6.3478260869565215,3.7282608695652173,3.457222396996307,0.8115125669851984,4.2687349639815055,484.979368445798,599.3328266540559
1.7089450488525488E12,1.7934782608695652,-6.326086956521739,3.7391304347826084,3.45015447737628,0.82261929781667,4.27277377519295,484.98073875674476,599.329292694246
1.7089450488720806E12,1.8369565217391304,-6.3478260869565215,3.652173913043478,3.459025437715702,0.8114404453564226,4.2704658830721245,484.9754017562153,599.3242441802316
1.7089450488916125E12,1.8152173913043477,-6.3478260869565215,3.6739130434782608,3.4550587481330335,0.8037234310774122,4.258782179210446,484.9776375267074,599.3171041389828
1.7089450489111443E12,1.8152173913043477,-6.315217391304348,3.717391304347826,3.4505150855201587,0.8067525394859953,4.257267625006154,484.9792242025405,599.3165271659526
1.7089450489306763E12,1.8152173913043477,-6.282608695652174,3.684782608695652,3.45289509926976,0.7976652142602458,4.250560313530006,484.97691631041965,599.3171041389828
1.7089450489502083E12,1.8152173913043477,-6.239130434782608,3.641304347826087,3.4332780162427445,0.8086277018341663,4.241905718076911,484.97915208091166,599.3202053690202
1.70894504896974E12,1.858695652173913,-6.25,3.5652173913043477,3.43421559741683,0.8100701344096821,4.244285731826512,484.9813878514037,599.3088101516736
1.708945048989272E12,1.8369565217391304,-6.206521739130435,3.5869565217391304,3.440129570976445,0.8084113369478385,4.2485409079242835,484.9821090676915,599.3013095022809
1.708945049008804E12,1.7934782608695652,-6.271739130434782,3.6630434782608696,3.4357301516211214,0.8086998234629421,4.2444299750840635,484.9818205811764,599.3148683684908
1.7089450490283357E12,1.8043478260869565,-6.358695652173913,3.608695652173913,3.444312625445441,0.8152628916815385,4.259575517126979,484.9814599730325,599.3005161643644
1.7089450490478677E12,1.8152173913043477,-6.369565217391304,3.641304347826087,3.441860490067064,0.8427412322451153,4.284601722312179,484.98073875674476,599.3031846646292
1.7089450490673994E12,1.8043478260869565,-6.423913043478261,3.684782608695652,3.3735613076163897,0.9099585902641527,4.283519897880542,484.9735265938672,599.3027519348565
1.7089450490869314E12,1.7934782608695652,-6.434782608695652,3.6739130434782608,3.376085564623543,0.9140695231043723,4.290155087727915,484.97684418879084,599.2727493372857
1.7089450491064634E12,1.826086956521739,-6.4021739130434785,3.6630434782608696,3.4119300141251108,0.8257205278540285,4.237650541979139,484.9712908233751,599.2852985006928
1.708945049125995E12,1.8152173913043477,-6.380434782608695,3.641304347826087,3.439768962832566,0.8057428366831343,4.2455117995157,484.9675404986788,599.2840724330035
1.708945049145527E12,1.8152173913043477,-6.358695652173913,3.652173913043478,3.4667424519947114,0.7798511719526258,4.246593623947337,484.96379017398243,599.2936646096307
1.708945049165059E12,1.826086956521739,-6.380434782608695,3.6739130434782608,3.4659491140781777,0.7784808610058858,4.2444299750840635,484.9607610655739,599.2855869872078
1.7089450491845908E12,1.7934782608695652,-6.380434782608695,3.6739130434782608,3.521338524977985,0.7921839704732858,4.313522495451271,484.96184289000547,599.3122719898548
1.7089450492041228E12,1.826086956521739,-6.380434782608695,3.619565217391304,2.794713115061893,1.6898818838455538,4.484594998907447,484.96696352564857,599.3989621876434
1.7089450492236545E12,1.8152173913043477,-6.369565217391304,3.5978260869565215,2.8286102805865148,1.664278705630148,4.492888986216663,484.95960711951346,598.9692615233972
1.7089450492431865E12,1.8478260869565217,-6.423913043478261,3.5543478260869565,3.3454338723938317,0.7929051867610442,4.138339059154876,484.95874165996815,599.334413329889
1.7089450492627185E12,1.7934782608695652,-6.380434782608695,3.7717391304347827,3.414598514389815,0.9011597515535055,4.3157582659433205,484.9629968360659,599.3422024657968
1.7089450492822502E12,1.7608695652173914,-6.413043478260869,3.543478260869565,3.423830082873116,0.8923609128428591,4.316190995715975,484.95802044368037,599.3538861696585
1.7089450493017822E12,1.7717391304347825,-6.4021739130434785,3.4891304347826084,3.4167621632530887,0.8868075474271233,4.303569710680212,484.9572271057638,599.3632619813993
1.7089450493213142E12,1.8152173913043477,-6.358695652173913,3.532608695652174,3.410848189693474,0.9129155770439601,4.323763766737434,484.9575155922789,599.3732147661703
1.708945049340846E12,1.7934782608695652,-6.380434782608695,3.5978260869565215,3.388995336174409,0.9335423628738364,4.322537699048246,484.9550634569006,599.3856196863198
1.708945049360378E12,1.8152173913043477,-6.380434782608695,3.5760869565217392,3.3722631182984255,0.9473897155987876,4.319652833897213,484.9544143622416,599.4001882553325
1.7089450493799097E12,1.8043478260869565,-6.391304347826087,3.5217391304347827,3.3302883303509154,0.9677280149135608,4.298016345264476,484.952683443151,599.4578855583532
1.7089450493994417E12,1.7826086956521738,-6.4021739130434785,3.5543478260869565,3.299780881378756,0.9737862317307275,4.2735671131094835,484.9504476726589,599.5102458608444
1.7089450494189736E12,1.8043478260869565,-6.434782608695652,3.532608695652174,3.2286689554058263,1.0104961407776045,4.239165096183431,484.95131313220423,599.5765977593181
1.7089450494385054E12,1.8152173913043477,-6.423913043478261,3.5217391304347827,3.2216731574145747,1.0040051941877834,4.225678351602358,484.95189010523444,599.5693855964405
1.7089450494580374E12,1.8369565217391304,-6.380434782608695,3.532608695652174,3.309373058005936,0.9711177314660233,4.280490789471959,484.9477070507654,599.4361048264628
1.7089450494775693E12,1.8369565217391304,-6.369565217391304,3.5,3.381206200266624,0.9120501174986502,4.293256317765274,484.94676946959135,599.3524437370829
1.708945049497101E12,1.826086956521739,-6.413043478260869,3.510869565217391,3.431114367379471,0.860843761067839,4.29195812844731,484.9460482533036,599.3089543949312
1.708945049516633E12,1.7934782608695652,-6.413043478260869,3.5760869565217392,3.4354416651060182,0.8539200847053632,4.289361749811381,484.94525491538707,599.2971985694408
1.7089450495361648E12,1.7934782608695652,-6.434782608695652,3.4782608695652173,3.444240503816665,0.8317787446711953,4.27601924848786,484.9475628075079,599.2954676503501
1.7089450495556968E12,1.8152173913043477,-6.4021739130434785,3.5869565217391304,3.440778665635427,0.8410824347832722,4.281861100418699,484.9495822131136,599.2863082034955
1.7089450495752288E12,1.7934782608695652,-6.358695652173913,3.402173913043478,3.445322328248302,0.8328605691028321,4.278182897351134,484.9442452125842,599.3008767725083
1.7089450495947605E12,1.8152173913043477,-6.33695652173913,3.5,3.4530393425273114,0.8415151645559269,4.294554507083238,484.9422979286073,599.2943858259184
1.7089450496142925E12,1.8043478260869565,-6.358695652173913,3.5217391304347827,3.4482071933993335,0.8358896775114153,4.284096870910749,484.9374657794793,599.282630000428
1.7089450496338245E12,1.8152173913043477,-6.4021739130434785,3.5,3.4536163155575177,0.8361781640265185,4.289794479584036,484.94265853675114,599.2904191363358
1.7089450496533562E12,1.8043478260869565,-6.413043478260869,3.5217391304347827,3.447630220369127,0.833942393534469,4.281572613903596,484.93912457694114,599.2793845271331
1.7089450496728882E12,1.8043478260869565,-6.456521739130435,3.4782608695652173,3.452173882982002,0.8172101756584857,4.269384058640488,484.9384754822821,599.2656814176657
1.70894504969242E12,1.7826086956521738,-6.445652173913043,3.4891304347826084,3.4492168962021945,0.820888378726051,4.2701052749282455,484.9353742522448,599.2635898904311
1.708945049711952E12,1.7934782608695652,-6.423913043478261,3.510869565217391,3.448712044800764,0.8169938107721584,4.265705855572922,484.9316960491772,599.258829862932
1.708945049731484E12,1.7717391304347825,-6.413043478260869,3.4891304347826084,3.4478465852554545,0.8095652830082511,4.257411868263706,484.93313848175274,599.2705856884224
1.7089450497510156E12,1.7826086956521738,-6.4021739130434785,3.4782608695652173,3.446981125710145,0.8272350820583205,4.274216207768466,484.9336433331542,599.2705856884224
1.7089450497705476E12,1.8043478260869565,-6.380434782608695,3.5,3.4495775043460735,0.8150465267952121,4.2646240311412855,484.9288111840262,599.3021028401974
1.7089450497900796E12,1.7934782608695652,-6.391304347826087,3.510869565217391,3.454553896731603,0.8142531888786784,4.268807085610281,484.92715238656433,599.2953955287213
1.7089450498096113E12,1.826086956521739,-6.380434782608695,3.510869565217391,3.4543375318452756,0.8169938107721584,4.271331342617434,484.92679177842047,599.2888324605027
1.7089450498291433E12,1.7934782608695652,-6.423913043478261,3.543478260869565,3.4506593287777103,0.8092046748643722,4.2598640036420825,484.9266475351629,599.2838560681172
1.708945049848675E12,1.8043478260869565,-6.391304347826087,3.5,3.457222396996307,0.8098537695233552,4.267076166519662,484.9228250888378,599.2780863378151
1.708945049868207E12,1.7934782608695652,-6.413043478260869,3.5,3.4350810569621393,0.8816147901552664,4.316695847117406,484.92405115652696,599.2835675816021
1.708945049887739E12,1.7934782608695652,-6.4021739130434785,3.532608695652174,3.4036360268158945,0.9146464961345786,4.318282522950473,484.92354630512557,599.2878948793286
1.7089450499072708E12,1.7826086956521738,-6.4021739130434785,3.4782608695652173,3.38315348424357,0.9183968208309197,4.30155030507449,484.92174326440613,599.2734705535735
1.7089450499268027E12,1.7608695652173914,-6.423913043478261,3.4891304347826084,3.38452379519031,0.8773596140574953,4.2618834092478055,484.92232023743634,599.2650323230067
1.7089450499463347E12,1.7934782608695652,-6.413043478260869,3.510869565217391,3.4604678702912177,0.8370436235718279,4.297511493863046,484.92361842675433,599.2646717148629
1.7089450499658665E12,1.8043478260869565,-6.4021739130434785,3.532608695652174,3.4823207238102825,0.7975930926314705,4.279913816441753,484.9174880883084,599.2714511479678
1.7089450499853984E12,1.8152173913043477,-6.423913043478261,3.5978260869565215,3.4802291965757846,0.7968718763437126,4.277101072919497,484.9197238588004,599.2746244996339
1.7089450500049302E12,1.8152173913043477,-6.4021739130434785,3.5869565217391304,3.5388640807705025,0.8208162570972748,4.359680337867777,484.92347418349675,599.3001555562205
1.7089450500244622E12,1.8043478260869565,-6.434782608695652,3.5543478260869565,3.1085864434941346,1.2234713105525152,4.33205775404665,484.9218875076637,599.4694250189573
1.7089450500439941E12,1.8043478260869565,-6.4021739130434785,3.543478260869565,2.8591177295586743,1.637016729952899,4.496134459511573,484.9173438450508,598.9224545863217
1.708945050063526E12,1.826086956521739,-6.391304347826087,3.4565217391304346,3.362815184928797,0.7600177240392831,4.12283290896808,484.923402061868,599.2578922817579
1.7089450500830579E12,1.826086956521739,-6.4021739130434785,3.6630434782608696,3.3963517423095397,0.9222913887848123,4.318643131094352,484.92477237281474,599.3512176693938
1.7089450501025898E12,1.7065217391304348,-6.478260869565217,3.5543478260869565,3.439408354688687,0.9111846579533407,4.350593012642028,484.92520510258737,599.3504964531061
1.7089450501221216E12,1.75,-6.445652173913043,3.4891304347826084,3.4471253689676966,0.907290089999448,4.354415458967145,484.9299651300866,599.358574075529
1.7089450501416536E12,1.8369565217391304,-6.4021739130434785,3.608695652173913,3.422531893555152,0.9377975389716076,4.360329432526759,484.9299651300866,599.37912873973
1.7089450501611853E12,1.826086956521739,-6.4021739130434785,3.6630434782608696,3.4107039464359223,0.9413314987816213,4.352035445217544,484.9319845356923,599.3841772537443
1.7089450501807173E12,1.7826086956521738,-6.380434782608695,3.6739130434782608,3.37630192950987,0.9779692861997229,4.354271215709593,484.92772935959454,599.4117277159366
1.7089450502002493E12,1.8043478260869565,-6.3478260869565215,3.5652173913043477,3.351924818983653,0.9819359757823918,4.333860794766045,484.9314075626621,599.4517552199072
1.708945050219781E12,1.7717391304347825,-6.391304347826087,3.5543478260869565,3.2994923948636528,1.0187901280868203,4.318282522950473,484.9340760629268,599.5082264552386
1.708945050239313E12,1.8152173913043477,-6.423913043478261,3.5869565217391304,3.2548491066514385,1.0370369001670956,4.291886006818534,484.9391966985699,599.5618128254191
1.708945050258845E12,1.8152173913043477,-6.413043478260869,3.619565217391304,3.2098452102953448,1.0552836722473713,4.265128882542716,484.9456876451597,599.5828002193929
1.7089450502783767E12,1.7934782608695652,-6.358695652173913,3.608695652173913,3.2557866878255237,1.0360271973642345,4.291813885189758,484.9454712802734,599.4851475340304
1.7089450502979087E12,1.8043478260869565,-6.369565217391304,3.5978260869565215,3.3320192494415344,0.9909511793793659,4.3229704288209,484.9461203749324,599.3911009301067
1.7089450503174404E12,1.8043478260869565,-6.3478260869565215,3.619565217391304,3.4002463102634324,0.9330375114724059,4.333283821735838,484.94835614542444,599.3094592463326
1.7089450503369724E12,1.7608695652173914,-6.3478260869565215,3.652173913043478,3.4353695434772424,0.8945245617061337,4.329894105183376,484.95174586197686,599.2953234070925
1.7089450503565044E12,1.75,-6.380434782608695,3.5978260869565215,3.4335665027578477,0.8837063173897644,4.317272820147612,484.9544143622416,599.2982082722435
1.7089450503760361E12,1.8043478260869565,-6.3478260869565215,3.641304347826087,3.435153178590915,0.8732486812172748,4.30840185980819,484.95484709201423,599.3023192050838
1.708945050395568E12,1.8152173913043477,-6.369565217391304,3.5869565217391304,3.4346483271894845,0.8875287637148812,4.322177090904366,484.95600103807465,599.3025355699701
1.7089450504151E12,1.8478260869565217,-6.358695652173913,3.641304347826087,3.4389035032872566,0.8868796690558995,4.325783172343156,484.95542406504444,599.3145798819756
1.7089450504346318E12,1.7934782608695652,-6.391304347826087,3.7391304347826084,3.4492890178309703,0.8802444792085269,4.329533497039497,484.95989560602857,599.3039780025456
1.7089450504541638E12,1.826086956521739,-6.380434782608695,3.6304347826086953,3.4389756249160324,0.8821196415566965,4.321095266472729,484.9616265251192,599.2959003801227
1.7089450504736956E12,1.7934782608695652,-6.4021739130434785,3.5978260869565215,3.4389756249160324,0.8774317356862702,4.316407360602303,484.966170187732,599.2940252177746
1.7089450504932275E12,1.8043478260869565,-6.391304347826087,3.641304347826087,3.438398651885826,0.8801002359509744,4.3184988878368005,484.9683338365953,599.2940973394034
1.7089450505127595E12,1.7934782608695652,-6.380434782608695,3.619565217391304,3.443591409157683,0.872022613528086,4.315614022685769,484.9670356472773,599.2957561368652
1.7089450505322913E12,1.7934782608695652,-6.358695652173913,3.652173913043478,3.4396968412037903,0.864810450650507,4.304507291854297,484.96919929614063,599.2852985006928
1.7089450505518232E12,1.8043478260869565,-6.3478260869565215,3.5978260869565215,3.4323404350686593,0.8632237748174401,4.295564209886099,484.96934353939815,599.2905633795933
1.7089450505713552E12,1.8152173913043477,-6.326086956521739,3.6739130434782608,3.4350810569621393,0.8614207340980453,4.296501791060185,484.9722284045492,599.2906355012221
1.708945050590887E12,1.8152173913043477,-6.358695652173913,3.6630434782608696,3.425633123592511,0.8682722888317453,4.293905412424256,484.97720479693476,599.2870294197834
1.708945050610419E12,1.8152173913043477,-6.358695652173913,3.652173913043478,3.4281573805996635,0.8700753295511401,4.2982327101508035,484.9805223918584,599.2862360818668
1.7089450506299507E12,1.8043478260869565,-6.369565217391304,3.652173913043478,3.430393151091713,0.8612764908404937,4.291669641932207,484.97958481068434,599.2974149343271
1.7089450506494827E12,1.8043478260869565,-6.3478260869565215,3.641304347826087,3.428373745485991,0.8645940857641801,4.292967831250171,484.97605085087434,599.293231879858
1.7089450506690146E12,1.8369565217391304,-6.358695652173913,3.6304347826086953,3.4278688940845603,0.8684165320892969,4.296285426173857,484.9770605536772,599.2817645408827
1.7089450506885464E12,1.8369565217391304,-6.358695652173913,3.641304347826087,3.4236137179867887,0.8846438985638496,4.308257616550638,484.9766999455333,599.2709462965663
1.7089450507080784E12,1.8478260869565217,-6.3478260869565215,3.619565217391304,3.4205124879494297,0.9301526463213738,4.350665134270804,484.97871935113903,599.2639504985751
1.7089450507276104E12,1.8369565217391304,-6.304347826086956,3.5978260869565215,3.359064860232456,0.9922493686973297,4.351314228929786,484.9803781486009,599.2648159581204
1.708945050747142E12,1.8369565217391304,-6.260869565217391,3.5652173913043477,3.3620218470122634,0.9905184496067108,4.352540296618974,484.97691631041965,599.2443334155481
1.708945050766674E12,1.8152173913043477,-6.315217391304348,3.543478260869565,3.4078190812848907,0.9067852385980171,4.314604319882908,484.97835874299517,599.2583971331593
1.7089450507862058E12,1.8369565217391304,-6.271739130434782,3.5543478260869565,3.4215943123810666,0.8747632354215664,4.296357547802633,484.9832630137519,599.2477952537294
1.7089450508057378E12,1.8369565217391304,-6.326086956521739,3.5978260869565215,3.441139273779306,0.8669019778850049,4.308041251664311,484.97958481068434,599.255295903122
1.7089450508252698E12,1.8478260869565217,-6.3478260869565215,3.608695652173913,3.441860490067064,0.8759893031107544,4.317849793177818,484.9746084182988,599.2562334842961
1.7089450508448015E12,1.826086956521739,-6.369565217391304,3.6304347826086953,3.480806169605991,0.9012318731822813,4.382038042788272,484.9751132697002,599.295828258494
1.7089450508643335E12,1.8369565217391304,-6.4021739130434785,3.5760869565217392,2.6231357602042866,1.8597283196125414,4.482864079816828,484.97648358064697,599.3216478015958
1.7089450508838655E12,1.8369565217391304,-6.380434782608695,3.5760869565217392,2.9942015402557303,1.6080238351850316,4.602225375440762,484.97093021523125,598.9443795614695
1.7089450509033972E12,1.858695652173913,-6.4021739130434785,3.5217391304347827,3.3282689247451933,0.9339750926464911,4.2622440173916845,484.97475266155635,599.3176089903843
1.7089450509229292E12,1.7826086956521738,-6.369565217391304,3.7717391304347827,3.384956524962965,0.9982354638857198,4.383191988848685,484.9738150803823,599.3124883547412
1.708945050942461E12,1.7826086956521738,-6.445652173913043,3.510869565217391,3.3923850527268713,0.9970093961965323,4.389394448923404,484.9695599042845,599.3232344774287
1.708945050961993E12,1.8152173913043477,-6.413043478260869,3.532608695652174,3.387408660341342,1.0016251804381828,4.389033840779525,484.968117471709,599.3256144911784
1.708945050981525E12,1.858695652173913,-6.380434782608695,3.5978260869565215,3.3733449427300624,1.0241271286162297,4.397472071346292,484.96609806610326,599.3412648846228
1.7089450510010566E12,1.8369565217391304,-6.413043478260869,3.5978260869565215,3.361444873982057,1.0314114131225844,4.3928562871046415,484.9666029175047,599.3623965218541
1.7089450510205886E12,1.8369565217391304,-6.391304347826087,3.5760869565217392,3.331802884555207,1.0484321175136704,4.380235002068877,484.96285259280836,599.3846821051458
1.7089450510401206E12,1.8369565217391304,-6.369565217391304,3.543478260869565,3.2931456915313833,1.0702128494039593,4.363358540935343,484.9647998767853,599.4205265546473
1.7089450510596523E12,1.8478260869565217,-6.4021739130434785,3.5217391304347827,3.258815796234107,1.077352890652763,4.33616868688687,484.95953499788465,599.4755553574032
1.7089450510791843E12,1.8369565217391304,-6.380434782608695,3.543478260869565,3.2010463715846984,1.0922820678093514,4.29332843939405,484.95513557852934,599.5482539592092
1.708945051098716E12,1.8478260869565217,-6.380434782608695,3.532608695652174,3.186261437685661,1.1194719218578246,4.305733359543486,484.9565058894761,599.5262568624327
1.708945051118248E12,1.826086956521739,-6.3478260869565215,3.532608695652174,3.2818225958135843,1.074107417357852,4.355930013171436,484.9606168223163,599.3952839845758
1.70894505113778E12,1.8369565217391304,-6.358695652173913,3.4891304347826084,3.357333941141837,1.0236222772147983,4.380956218356635,484.96285259280836,599.3124162331125
1.7089450511573118E12,1.8369565217391304,-6.380434782608695,3.532608695652174,3.386975930568687,0.9945572608181545,4.381533191386842,484.962636227922,599.2625080659996
1.7089450511768438E12,1.826086956521739,-6.413043478260869,3.5652173913043477,3.410776068064698,0.9478224453714423,4.3585985134361405,484.9611937953465,599.2609935117953
1.7089450511963757E12,1.858695652173913,-6.423913043478261,3.4891304347826084,3.4055111891640655,0.9531594459008508,4.358670635064916,484.9554961866732,599.2550795382357
1.7089450512159075E12,1.8695652173913042,-6.4021739130434785,3.608695652173913,3.420800974464533,0.9553230947641245,4.376124069228657,484.9544143622416,599.2656814176657
1.7089450512354395E12,1.8369565217391304,-6.413043478260869,3.4130434782608696,3.415896703707779,0.9522218647267655,4.368118568434545,484.95008706451506,599.2657535392945
1.7089450512549712E12,1.8369565217391304,-6.391304347826087,3.5543478260869565,3.4251282721910803,0.9599388790057759,4.385067151196856,484.950736159174,599.2698644721347
1.7089450512745032E12,1.826086956521739,-6.391304347826087,3.5217391304347827,3.409838486890613,0.9678722581711119,4.377710745061725,484.95001494288624,599.264311106719
1.7089450512940352E12,1.8695652173913042,-6.4021739130434785,3.510869565217391,3.40731422988346,0.9628237441568066,4.370137974040267,484.95174586197686,599.2616426064543
1.708945051313567E12,1.8478260869565217,-6.413043478260869,3.532608695652174,3.407097864997133,0.9660692174517171,4.37316708244885,484.9477070507654,599.2644553499765
1.7089450513330989E12,1.8478260869565217,-6.423913043478261,3.510869565217391,3.412146379011438,0.9496254860908371,4.361771865102275,484.9492937265985,599.259767444106
1.7089450513526309E12,1.8478260869565217,-6.413043478260869,3.5217391304347827,3.417339136283295,0.949986094234716,4.367325230518011,484.9453991586446,599.2591904710758
1.7089450513721626E12,1.8478260869565217,-6.380434782608695,3.532608695652174,3.411785770867559,0.9536642973022813,4.3654500681698405,484.94590401004604,599.2605607820226
1.7089450513916946E12,1.826086956521739,-6.391304347826087,3.4782608695652173,3.4229646233278066,0.9330375114724054,4.356002134800212,484.94049488788784,599.2744802563764
1.7089450514112263E12,1.826086956521739,-6.391304347826087,3.4891304347826084,3.4273640426831298,0.9470291074549086,4.374393150138038,484.9406391311454,599.2650323230067
1.7089450514307583E12,1.826086956521739,-6.413043478260869,3.510869565217391,3.4191421770026897,0.9418363501830518,4.3609785271857415,484.9368888064491,599.2598395657349
1.7089450514502903E12,1.8478260869565217,-6.4021739130434785,3.4782608695652173,3.431763462038453,0.9391678499183476,4.3709313119568005,484.93429242781315,599.2614983631967
1.708945051469822E12,1.8478260869565217,-6.4021739130434785,3.5217391304347827,3.422531893555152,0.9430624178722402,4.365594311427392,484.9360954685325,599.2539255921753
1.708945051489354E12,1.8478260869565217,-6.413043478260869,3.5,3.431114367379471,0.9433509043873434,4.374465271766814,484.93313848175274,599.2590462278183
1.708945051508886E12,1.8478260869565217,-6.369565217391304,3.4782608695652173,3.431402853894574,0.9349847954493518,4.366387649343926,484.93544637387356,599.2571710654702
1.7089450515284177E12,1.8478260869565217,-6.369565217391304,3.5,3.4285179887435424,0.9577752301425022,4.386293218886045,484.93458091432825,599.265897782552
1.7089450515479497E12,1.8369565217391304,-6.391304347826087,3.4782608695652173,3.415608217192676,0.9951342338483613,4.410742451041037,484.9329221168664,599.2560171194098
1.7089450515674814E12,1.8478260869565217,-6.369565217391304,3.5,3.3447847777348496,1.0577358076257477,4.402520585360597,484.93162392754846,599.2498867809638
1.7089450515870134E12,1.8369565217391304,-6.445652173913043,3.532608695652174,3.3636806444741065,1.0397054004318003,4.403386044905907,484.92931603542763,599.2329381982015
1.7089450516065454E12,1.8152173913043477,-6.423913043478261,3.532608695652174,3.370315834321479,0.9764547319954318,4.346770566316911,484.93018149497294,599.2391406582763
1.7089450516260771E12,1.826086956521739,-6.4021739130434785,3.467391304347826,3.4364513679088797,0.925825348594826,4.362276716503706,484.9273687514507,599.2485164700171
1.7089450516456091E12,1.8478260869565217,-6.423913043478261,3.4891304347826084,3.452534491125881,0.9169543882554039,4.369488879381285,484.9286669407686,599.2379867122158
1.708945051665141E12,1.858695652173913,-6.413043478260869,3.5217391304347827,3.4596024107459082,0.9126992121576323,4.3723016229035405,484.9272245081931,599.2591904710758
1.7089450516846729E12,1.858695652173913,-6.413043478260869,3.532608695652174,3.5061929829350693,0.9473175939700123,4.453510576905082,484.92361842675433,599.2981361506148
1.7089450517042048E12,1.8478260869565217,-6.380434782608695,3.5,2.610730840054851,1.9032897833931193,4.51402062344797,484.931768170806,599.3001555562205
1.7089450517237366E12,1.858695652173913,-6.380434782608695,3.532608695652174,2.958861942155593,1.6609611107064617,4.6198230528620545,484.9241232781558,598.8910816778042
1.7089450517432686E12,1.858695652173913,-6.413043478260869,3.4565217391304346,3.3387986825464586,0.8715177621266563,4.210316444673115,484.9228250888378,599.2589019845608
1.7089450517628005E12,1.8478260869565217,-6.391304347826087,3.641304347826087,3.4049342161338587,1.0400660085756788,4.4450002247095375,484.92592631887516,599.3206380987929
1.7089450517823323E12,1.8043478260869565,-6.413043478260869,3.467391304347826,3.426282218251493,1.0224683311543865,4.448750549405879,484.9249887377011,599.3352787894344
1.7089450518018643E12,1.8478260869565217,-6.380434782608695,3.467391304347826,3.4113530410949044,1.0409314681209887,4.452284509215893,484.9208778048608,599.3435006551148
1.7089450518213962E12,1.9130434782608696,-6.358695652173913,3.467391304347826,3.413949419730833,1.0536969964143035,4.467646416145136,484.91431473664227,599.3471788581824
1.708945051840928E12,1.8043478260869565,-6.380434782608695,3.532608695652174,3.389428065947064,1.0730255929262156,4.4624536588732795,484.9105644119459,599.3818693616234
1.70894505186046E12,1.8043478260869565,-6.423913043478261,3.532608695652174,3.368368550344533,1.080598363947674,4.448966914292207,484.9091219793704,599.397447633439
1.7089450518799917E12,1.8478260869565217,-6.4021739130434785,3.543478260869565,3.345722358908935,1.095743905990589,4.441466264899524,484.91251169592283,599.4107180131338
1.7089450518995237E12,1.8478260869565217,-6.445652173913043,3.543478260869565,3.305550611680819,1.1181016109110846,4.423652222591904,484.907318938651,599.4880323991814
1.7089450519190557E12,1.9021739130434783,-6.423913043478261,3.5760869565217392,3.255065471537766,1.138367788597082,4.393433260134848,484.90472256001505,599.5352720660296
1.7089450519385874E12,1.8695652173913042,-6.413043478260869,3.543478260869565,3.2334289829050284,1.1496908843148805,4.383119867219909,484.9059486277043,599.5437102965964
1.7089450519581194E12,1.891304347826087,-6.358695652173913,3.5652173913043477,3.277278933200709,1.1398102211725978,4.417089154373307,484.90645347910566,599.4527649227101
1.7089450519776514E12,1.8369565217391304,-6.369565217391304,3.5760869565217392,3.377455875570283,1.0669673761090483,4.444423251679331,484.9073910602798,599.332177559397
1.708945051997183E12,1.8478260869565217,-6.380434782608695,3.5869565217391304,3.4295998131751793,1.0234059123284718,4.453005725503651,484.90392922209855,599.2902748930783
1.708945052016715E12,1.8043478260869565,-6.4021739130434785,3.619565217391304,3.454481775102827,0.9905905712354861,4.445072346338313,484.90190981649283,599.2699365937634
1.7089450520362468E12,1.826086956521739,-6.423913043478261,3.510869565217391,3.4561405725646703,0.9797723269191176,4.435912899483788,484.9001067757734,599.2746966212627
1.7089450520557788E12,1.8804347826086956,-6.3478260869565215,3.6304347826086953,3.4559963293071188,0.9820080974111671,4.438004426718286,484.8990249513418,599.2729657021721
1.7089450520753108E12,1.8369565217391304,-6.369565217391304,3.5543478260869565,3.452173882982002,0.9912396658944682,4.44341354887647,484.8980873701677,599.2769323917547
1.7089450520948425E12,1.8695652173913042,-6.3478260869565215,3.5869565217391304,3.464218194987559,0.9942687743030523,4.458486969290611,484.8903703558887,599.2726050940282
1.7089450521143745E12,1.826086956521739,-6.358695652173913,3.6630434782608696,3.4580878565416167,0.9953505987346891,4.453438455276306,484.8941928022138,599.273614796831
1.7089450521339062E12,1.8695652173913042,-6.369565217391304,3.608695652173913,3.456933910481204,0.9863353951377145,4.4432693056189185,484.890586720775,599.2767160268684
1.7089450521534382E12,1.8695652173913042,-6.4021739130434785,3.619565217391304,3.4685454927141066,0.9778250429421709,4.4463705356562775,484.8928946128958,599.2778699729288
1.7089450521729702E12,1.9021739130434783,-6.380434782608695,3.608695652173913,3.4574387618826345,0.9830178002140282,4.440456562096663,484.891884910093,599.2751293510353
1.708945052192502E12,1.8804347826086956,-6.423913043478261,3.6630434782608696,3.453111464156087,0.9755892724501218,4.428700736606209,484.89195703172174,599.2711626614526
1.708945052212034E12,1.9021739130434783,-6.4021739130434785,3.717391304347826,3.473954614872291,0.9660692174517171,4.440023832324008,484.8903703558887,599.2603444171363
1.708945052231566E12,1.8804347826086956,-6.4021739130434785,3.6739130434782608,3.472223695781672,0.9591455410892413,4.431369236870913,484.8903703558887,599.2473625239567
1.7089450522510977E12,1.9021739130434783,-6.4021739130434785,3.684782608695652,3.462415154268164,0.9694589340041797,4.431874088272344,484.88957701797216,599.257531673614
1.7089450522706296E12,1.8804347826086956,-6.391304347826087,3.7282608695652173,3.4660212357069535,0.9709734882084713,4.436994723915425,484.8950582617591,599.2586134980456
1.7089450522901614E12,1.891304347826087,-6.4021739130434785,3.7065217391304346,3.4730891553269814,0.9593619059755687,4.43245106130255,484.8913079370628,599.2633014039161
1.7089450523096934E12,1.9021739130434783,-6.413043478260869,3.6739130434782608,3.4795801019168024,0.9584243248014834,4.438004426718286,484.8913079370628,599.2646717148629
1.7089450523292253E12,1.891304347826087,-6.434782608695652,3.684782608695652,3.483546791499471,0.9553952163929003,4.438942007892371,484.8936158291836,599.2577480385004
1.708945052348757E12,1.8478260869565217,-6.4021739130434785,3.717391304347826,3.487297116195812,0.9567655273396403,4.444062643535452,484.8927503696383,599.2599838089924
1.708945052368289E12,1.8695652173913042,-6.423913043478261,3.7717391304347827,3.4902541029756193,0.9489042698030792,4.4391583727786985,484.8948418968728,599.2608492685378
1.708945052387821E12,1.858695652173913,-6.391304347826087,3.7282608695652173,3.4719352092665687,0.9540249054461603,4.425960114712729,484.8980873701677,599.2701529586498
1.7089450524073528E12,1.8804347826086956,-6.369565217391304,3.75,3.485638318733969,0.9649873930200812,4.45062571175405,484.90003465414463,599.2693596207332
1.7089450524268848E12,1.858695652173913,-6.3478260869565215,3.782608695652174,3.4559963293071188,1.020809533692543,4.476805862999662,484.90176557323525,599.2832069734582
1.7089450524464165E12,1.9130434782608696,-6.326086956521739,3.6956521739130435,3.406376648709375,1.0851420265605478,4.491518675269923,484.9029916409244,599.2772208782699
1.7089450524659485E12,1.9130434782608696,-6.369565217391304,3.7391304347826084,3.391735958067889,1.0702128494039598,4.461948807471849,484.90717469539345,599.2417370369121
1.7089450524854805E12,1.8804347826086956,-6.3478260869565215,3.75,3.4126512304128687,1.0023463967259403,4.414997627138809,484.9084007630826,599.2678450665289
1.7089450525050122E12,1.8695652173913042,-6.358695652173913,3.652173913043478,3.4808782912347667,0.9635449604445645,4.444423251679331,484.91128562823366,599.2483722267596
1.7089450525245442E12,1.8478260869565217,-6.3478260869565215,3.684782608695652,3.48664802153683,0.933181754729957,4.419829776266787,484.9164783855055,599.2482279835019
1.7089450525440762E12,1.8695652173913042,-6.358695652173913,3.7391304347826084,3.494797765588494,0.9389514850320202,4.433749250620514,484.9174880883084,599.253997713804
1.708945052563608E12,1.8695652173913042,-6.4021739130434785,3.6956521739130435,3.524800363159223,0.9583522031727081,4.483152566331931,484.9194353722853,599.3208544636792
1.70894505258314E12,1.891304347826087,-6.391304347826087,3.6956521739130435,2.919195046328908,1.634636716203298,4.553831762532206,484.9272245081931,599.4212477709351
1.7089450526026716E12,1.8695652173913042,-6.3478260869565215,3.7391304347826084,3.171115895642745,1.5555192894362557,4.726635185079001,484.9233299402392,598.8964907999624
1.7089450526222036E12,1.9021739130434783,-6.358695652173913,3.608695652173913,3.367647334056775,0.890341507237137,4.257988841293912,484.9290996705413,599.2768602701259
1.7089450526417356E12,1.9021739130434783,-6.304347826086956,3.793478260869565,3.421522190752291,1.0379744813411813,4.459496672093472,484.92946027868516,599.3199890041338
1.7089450526612673E12,1.8804347826086956,-6.304347826086956,3.619565217391304,3.445610814763405,1.0294641291456377,4.475074943909043,484.93270575198005,599.3255423695496
1.7089450526807993E12,1.8804347826086956,-6.293478260869565,3.641304347826087,3.450731450406486,1.0456914956201904,4.4964229460266765,484.93061422474557,599.3215756799669
1.7089450527003313E12,1.9565217391304348,-6.260869565217391,3.641304347826087,3.4259937317363898,1.066174038192515,4.492167769928905,484.9301093733441,599.3356393975782
1.708945052719863E12,1.9239130434782608,-6.33695652173913,3.7282608695652173,3.4013281346950692,1.0878105268252525,4.489138661520322,484.9320566573211,599.3523716154542
1.708945052739395E12,1.934782608695652,-6.413043478260869,3.6956521739130435,3.3741382806465965,1.0987008927703967,4.472839173416993,484.9319845356923,599.3876390919255
1.7089450527589268E12,1.934782608695652,-6.380434782608695,3.6630434782608696,3.3545211976195812,1.1096633803443172,4.4641845779638984,484.93458091432825,599.4260077984343
1.7089450527784587E12,1.934782608695652,-6.380434782608695,3.6739130434782608,3.3186046264892375,1.1330307880676735,4.451635414556911,484.93277787360887,599.4644486265718
1.7089450527979907E12,1.9456521739130435,-6.380434782608695,3.6304347826086953,3.2629988507031027,1.1439932756415936,4.406992126344696,484.9393409418274,599.5185398481536
1.7089450528175225E12,1.9782608695652173,-6.304347826086956,3.6630434782608696,3.232275036844616,1.155316371359393,4.387591408204009,484.9370330497066,599.5291417275837
1.7089450528370544E12,1.9456521739130435,-6.293478260869565,3.6739130434782608,3.274249824792126,1.1463732893911946,4.4206231141833205,484.93811487413825,599.431272677335
1.7089450528565864E12,1.967391304347826,-6.282608695652174,3.6739130434782608,3.3591369818612318,1.1037494067847025,4.462886388645934,484.935951225275,599.3326102891697
1.7089450528761182E12,1.9130434782608696,-6.3478260869565215,3.75,3.427652529198233,1.0237665204723507,4.451419049670584,484.93667244156273,599.2570989438414
1.7089450528956501E12,1.891304347826087,-6.434782608695652,3.7717391304347827,3.432412556697435,1.0181410334278391,4.450553590125274,484.93602334690377,599.2545746868342
1.708945052915182E12,1.891304347826087,-6.445652173913043,3.652173913043478,3.4365956111664313,1.0049427753618683,4.4415383865283,484.9361675901613,599.2545025652055
1.7089450529347139E12,1.967391304347826,-6.413043478260869,3.7391304347826084,3.4417162468095124,1.0044379239604377,4.44615417076995,484.9361675901613,599.2525552812285
1.7089450529542458E12,1.967391304347826,-6.423913043478261,3.6304347826086953,3.448062950141782,0.9993172883173576,4.447380238459139,484.93097483288943,599.2423140099423
1.7089450529737776E12,1.9565217391304348,-6.369565217391304,3.641304347826087,3.4513084234366924,1.0157610196782376,4.46706944311493,484.92708026493557,599.2470019158128
1.7089450529933096E12,1.9021739130434783,-6.369565217391304,3.717391304347826,3.4451059633619745,1.0161216278221166,4.461227591184091,484.92946027868516,599.2489491997898
1.7089450530128416E12,1.9021739130434783,-6.358695652173913,3.6956521739130435,3.450082355747504,1.0071785458539186,4.457260901601423,484.9296766435715,599.2529158893724
1.7089450530323733E12,1.9021739130434783,-6.358695652173913,3.6739130434782608,3.452462369497105,0.9975142475979628,4.449976617095068,484.9254935891025,599.244694023692
1.7089450530519053E12,1.9239130434782608,-6.369565217391304,3.717391304347826,3.4582320997991682,0.991600274038348,4.449832373837516,484.9270081433068,599.2648880797492
1.708945053071437E12,1.9239130434782608,-6.4021739130434785,3.760869565217391,3.462847884040819,0.9887875305160923,4.451635414556911,484.9264311702766,599.2432515911164
1.708945053090969E12,1.9239130434782608,-6.423913043478261,3.7065217391304346,3.457943613284065,0.9973700043404112,4.455313617624476,484.92859481913985,599.2429631046014
1.708945053110501E12,1.9021739130434783,-6.391304347826087,3.6630434782608696,3.453904802072621,0.9934754363865186,4.447380238459139,484.926936021678,599.2413764287683
1.7089450531300327E12,1.9130434782608696,-6.358695652173913,3.6739130434782608,3.4465483959374903,0.9784020159723776,4.424950411909868,484.9249887377011,599.2494540511912
1.7089450531495647E12,1.9021739130434783,-6.380434782608695,3.652173913043478,3.4557799644207914,0.9781135294572745,4.433893493878066,484.9251329809586,599.2584692547881
1.7089450531690967E12,1.9239130434782608,-6.391304347826087,3.684782608695652,3.4588811944581503,0.9811426378658576,4.440023832324008,484.92390691326943,599.2399339961927
1.7089450531886284E12,1.891304347826087,-6.391304347826087,3.7065217391304346,3.4595302891171325,0.9812868811234092,4.440817170240542,484.9241232781558,599.2483722267596
1.7089450532081604E12,1.9239130434782608,-6.358695652173913,3.7065217391304346,3.453183585784863,0.9835226516154587,4.436706237400322,484.922752967209,599.2454152399797
1.7089450532276921E12,1.9021739130434783,-6.33695652173913,3.7065217391304346,3.462775762412043,0.9890760170311954,4.451851779443238,484.92109416974716,599.239212779905
1.708945053247224E12,1.9021739130434783,-6.315217391304348,3.7391304347826084,3.442581706354822,1.042734508840383,4.485316215195205,484.9230414537241,599.2540698354328
1.708945053266756E12,1.891304347826087,-6.315217391304348,3.760869565217391,3.3844516735615344,1.087594161938925,4.4720458355004595,484.92145477789103,599.2432515911164
1.7089450532862878E12,1.8804347826086956,-6.369565217391304,3.7717391304347827,3.389067457803185,1.0734583226988703,4.462525780502055,484.9213105346335,599.2376982257007
1.7089450533058198E12,1.8804347826086956,-6.326086956521739,3.7717391304347827,3.4233973531004613,0.9992451666885813,4.422642519789043,484.923402061868,599.244982510207
1.7089450533253518E12,1.8804347826086956,-6.3478260869565215,3.760869565217391,3.4705648983198287,0.9547461217339182,4.425311020053747,484.9160456557329,599.2521225514558
1.7089450533448835E12,1.8804347826086956,-6.358695652173913,3.793478260869565,3.4832583049843677,0.9528709593857476,4.436129264370115,484.91200684452144,599.2646717148629
1.7089450533644155E12,1.8804347826086956,-6.369565217391304,3.869565217391304,3.497249900966871,0.9467406209398055,4.443990521906676,484.9182814262249,599.2697923505059
1.7089450533839473E12,1.8804347826086956,-6.369565217391304,3.891304347826087,3.4719352092665687,0.9893645035462981,4.461299712812867,484.91698323690696,599.3654256302626
1.7089450534034792E12,1.8804347826086956,-6.4021739130434785,3.793478260869565,2.769975396391797,1.8489821969249483,4.618957593316745,484.9184256694825,599.363694711172
1.7089450534230112E12,1.8695652173913042,-6.304347826086956,3.8260869565217392,3.2867989881991138,1.3419671466311387,4.6287661348302525,484.91251169592283,598.9819549300618
1.708945053442543E12,1.891304347826087,-6.358695652173913,3.7391304347826084,3.362166090269815,0.9445769720765318,4.306743062346347,484.9119347228926,599.3147241252333
1.708945053462075E12,1.8152173913043477,-6.33695652173913,3.9891304347826084,3.440129570976445,1.056798226451662,4.496927797428107,484.91215108777897,599.339894573676
1.708945053481607E12,1.8369565217391304,-6.358695652173913,3.7282608695652173,3.432484678326211,1.055572158762474,4.488056837088685,484.91503595293,599.3451594525766
1.7089450535011387E12,1.858695652173913,-6.326086956521739,3.793478260869565,3.4365956111664313,1.055788523648801,4.492384134815232,484.9133050338394,599.3625407651116
1.7089450535206707E12,1.9239130434782608,-6.326086956521739,3.793478260869565,3.418060352571053,1.0858632428483057,4.503923595419359,484.91200684452144,599.3657862384065
1.7089450535402024E12,1.8369565217391304,-6.33695652173913,3.8369565217391304,3.400318431892208,1.096176635763244,4.496495067655452,484.91402625012716,599.3737917392006
1.7089450535597344E12,1.858695652173913,-6.413043478260869,3.8043478260869565,3.3751479834494575,1.1211307193196673,4.496278702769125,484.9094825875143,599.4070398100663
1.7089450535792664E12,1.8152173913043477,-6.380434782608695,3.793478260869565,3.350842994552016,1.1266840847354036,4.4775270792874196,484.9093383442567,599.4353836101751
1.708945053598798E12,1.8804347826086956,-6.391304347826087,3.8152173913043477,3.2943717592205717,1.1620958044643173,4.456467563684889,484.9075353035373,599.5138519422832
1.70894505361833E12,1.8369565217391304,-6.380434782608695,3.793478260869565,3.259392769264313,1.1739237515835463,4.4333165208478595,484.9105644119459,599.5607310009874
1.708945053637862E12,1.858695652173913,-6.391304347826087,3.8478260869565215,3.251170903583873,1.1845977526423632,4.435768656226236,484.9078237900524,599.5270502003492
1.7089450536573938E12,1.858695652173913,-6.369565217391304,3.8804347826086953,3.3008627058103928,1.1724091973792552,4.473271903189648,484.9100595605445,599.4163435001783
1.7089450536769258E12,1.8695652173913042,-6.391304347826087,3.8804347826086953,3.3863989575384807,1.106490028678182,4.492888986216663,484.90775166842366,599.3453758174629
1.7089450536964575E12,1.8478260869565217,-6.423913043478261,3.9130434782608696,3.4505872071489345,1.0306180752060503,4.481205282354985,484.9029916409244,599.2834233383445
1.7089450537159895E12,1.8478260869565217,-6.434782608695652,3.8804347826086953,3.453832680443845,1.0288150344866556,4.482647714930501,484.89974616762953,599.2696481072484
1.7089450537355215E12,1.858695652173913,-6.5,3.891304347826087,3.4734497634708603,0.9869123681679213,4.460362131638782,484.9024146678942,599.2728935805433
1.7089450537550532E12,1.9130434782608696,-6.467391304347826,3.967391304347826,3.4686176143428824,0.9970815178253076,4.46569913216819,484.8998904108871,599.2664747555822
1.7089450537745852E12,1.858695652173913,-6.543478260869565,3.717391304347826,3.465588505934299,1.0016973020669586,4.467285808001257,484.9001788974022,599.2727493372857
1.7089450537941172E12,1.8043478260869565,-6.3478260869565215,3.9239130434782608,3.477993426083735,1.0044379239604382,4.482431350044173,484.8988807080842,599.2689990125893
1.708945053813649E12,1.6956521739130435,-6.304347826086956,4.010869565217392,3.4919129004374625,0.981863854153616,4.4737767545910785,484.89794312691015,599.2646717148629
1.708945053833181E12,1.717391304347826,-6.304347826086956,3.902173913043478,3.486936508051933,0.9808541513507549,4.467790659402688,484.89765464039505,599.2696481072484
1.7089450538527126E12,1.75,-6.184782608695652,3.967391304347826,3.4887395487713277,0.9768874617680865,4.465627010539414,484.89765464039505,599.2608492685378
1.7089450538722446E12,1.8043478260869565,-6.239130434782608,4.054347826086956,3.504245698958123,0.9610928250661881,4.465338524024311,484.8923176398656,599.2607050252801
1.7089450538917766E12,1.8043478260869565,-6.271739130434782,4.119565217391305,3.4995577930876967,0.9496254860908375,4.449183279178534,484.89397643732747,599.266258390696
1.7089450539113083E12,1.7934782608695652,-6.282608695652174,4.0978260869565215,3.5115299834644778,0.9306574977228039,4.442187481187282,484.8928946128958,599.2516177000545
1.7089450539308403E12,1.7934782608695652,-6.271739130434782,4.043478260869565,3.499413549830145,0.9204883480654176,4.419901897895563,484.8980873701677,599.2512570919106
1.7089450539503723E12,1.8152173913043477,-6.260869565217391,3.9565217391304346,3.5064814694501725,0.931667200525665,4.4381486699758375,484.89491401850154,599.2477952537294
1.708945053969904E12,1.8043478260869565,-6.1521739130434785,3.934782608695652,3.5129002944112178,0.9318114437832166,4.444711738194434,484.8937600724411,599.2508964837666
1.708945053989436E12,1.8043478260869565,-6.08695652173913,4.010869565217392,3.5082123885407914,0.9442884855614291,4.4525008741022205,484.891235815434,599.2461364562674
1.7089450540089678E12,1.7717391304347825,-6.173913043478261,4.065217391304348,3.5140542404716304,0.9462357695383754,4.460290010010006,484.8931830994109,599.2400782394503
1.7089450540284998E12,1.7826086956521738,-6.260869565217391,4.08695652173913,3.5133330241838725,0.9621746494978249,4.475507673681697,484.8914521803203,599.2484443483883
1.7089450540480317E12,1.7608695652173914,-6.25,4.184782608695652,3.5118905916083567,0.9696752988905071,4.481565890498864,484.8900097477448,599.2460643346387
1.7089450540675635E12,1.7065217391304348,-6.33695652173913,4.195652173913043,3.509005726457325,0.9710456098372471,4.480051336294572,484.88784609888154,599.2573153087277
1.7089450540870955E12,1.7282608695652173,-6.3478260869565215,4.315217391304348,3.485926805249072,1.0146791952466003,4.500606000495672,484.8867642744499,599.2653929311506
1.7089450541066274E12,1.6521739130434783,-6.315217391304348,4.282608695652174,3.4267149480241477,1.0714389170931478,4.498153865117295,484.88799034213906,599.2278175625584
1.7089450541261592E12,1.6304347826086956,-6.271739130434782,4.282608695652174,3.4498659908611766,1.0322047510391177,4.482070741900294,484.8889279233132,599.22536542718
1.7089450541456912E12,1.6304347826086956,-6.228260869565217,4.195652173913043,3.5256658227045325,0.9602273655208786,4.485893188225411,484.8900818693736,599.2123114123716
1.708945054165223E12,1.5978260869565217,-6.163043478260869,4.141304347826087,3.55141324417749,0.8943803184485812,4.445793562626071,484.8936158291836,599.2264472516117
1.708945054184755E12,1.6195652173913042,-6.119565217391304,4.163043478260869,3.55415386607097,0.8899087774644823,4.444062643535452,484.8956352347893,599.2395733880488
1.7089450542042869E12,1.5652173913043477,-6.119565217391304,4.184782608695652,3.574852773529622,0.8814705468977153,4.456323320427337,484.89368795081236,599.2336594144892
1.7089450542238186E12,1.4456521739130435,-6.260869565217391,4.239130434782608,3.2965354080838454,1.1442817621566963,4.440817170240542,484.8928946128958,599.434446029001
1.7089450542433506E12,1.4021739130434783,-6.423913043478261,4.119565217391305,2.567602106046928,1.9178583524058284,4.485460458452756,484.8995298027432,599.1377376482175
1.7089450542628826E12,1.2934782608695652,-6.467391304347826,4.184782608695652,3.4588090728293746,0.896327602425528,4.355136675254903,484.89166854520664,599.1457431490115
1.7089450542824143E12,1.4021739130434783,-6.423913043478261,4.141304347826087,3.47294491206943,1.0001106262338908,4.473055538303321,484.89224551823685,599.3144356387181
1.7089450543019463E12,1.4021739130434783,-6.304347826086956,4.25,3.531435553006596,1.0129482761559814,4.5443838291625775,484.8957073564181,599.2942415826609
1.708945054321478E12,1.5,-6.163043478260869,4.119565217391305,3.525521579446981,1.0078997621416765,4.5334213415886575,484.8902261126311,599.3098198544765
1.70894505434101E12,1.5869565217391304,-6.0,4.206521739130435,3.515280308160819,1.0196555876321303,4.534935895792949,484.88690851770747,599.3052040702348
1.708945054360542E12,1.717391304347826,-5.956521739130435,4.130434782608695,3.492057143695014,1.0539854829294066,4.546042626624421,484.88121090903417,599.3129210845138
1.7089450543800737E12,1.6630434782608696,-5.913043478260869,4.130434782608695,3.4765509935082193,1.0601879430041246,4.536738936512344,484.88063393600396,599.3291484509884
1.7089450543996057E12,1.684782608695652,-6.08695652173913,4.076086956521739,3.4584484646854956,1.0820407965231893,4.540489261208685,484.87774907085293,599.3724935498826
1.7089450544191377E12,1.7282608695652173,-6.239130434782608,4.119565217391305,3.427219799425578,1.0972584601948814,4.52447825962046,484.87789331411045,599.4035058502562
1.7089450544386694E12,1.8369565217391304,-6.358695652173913,4.0978260869565215,3.385245011478068,1.1155052322751557,4.500750243753224,484.87774907085293,599.4561546392625
1.7089450544582014E12,1.9130434782608696,-6.489130434782608,4.130434782608695,3.329711357320709,1.128054395682144,4.457765753002853,484.87919150342844,599.5262568624327
1.7089450544777332E12,2.0543478260869565,-6.489130434782608,4.119565217391305,3.3237973837610943,1.1217798139786495,4.445577197739744,484.8808503008903,599.4993554948993
1.7089450544972651E12,2.152173913043478,-6.478260869565217,4.119565217391305,3.4140936629883845,1.076848039251332,4.4909417022397164,484.8794078683148,599.3381636545854
1.708945054516797E12,2.1847826086956523,-6.4021739130434785,4.130434782608695,3.4736661283571877,1.0125155463833266,4.486181674740514,484.8848169904729,599.2611377550528
1.7089450545363289E12,2.2065217391304346,-6.293478260869565,4.108695652173913,3.528911295999443,0.9526545944994207,4.481565890498864,484.882220611837,599.2335151712317
1.7089450545558608E12,2.2282608695652173,-6.228260869565217,4.065217391304348,3.527901593196582,0.9654201227927355,4.4933217159893175,484.8804896927464,599.2217593457412
1.7089450545753928E12,2.25,-6.195652173913043,3.9891304347826084,3.5323731341806814,0.9673674067696814,4.499740540950363,484.88121090903417,599.2258702785815
1.7089450545949246E12,2.1847826086956523,-6.184782608695652,4.08695652173913,3.540378634974794,0.9622467711266003,4.502625406101394,484.87536905710334,599.2283945355886
1.7089450546144565E12,2.1847826086956523,-6.228260869565217,3.9456521739130435,3.5412440945201036,0.9797002052903423,4.520944299810446,484.87796543573927,599.2263030083541
1.7089450546339883E12,2.217391304347826,-6.282608695652174,3.9891304347826084,3.556245393305468,0.9548903649914706,4.5111357582969385,484.87774907085293,599.2349576038072
1.7089450546535203E12,2.25,-6.33695652173913,3.967391304347826,3.55963510985793,0.9398890662061055,4.499524176064035,484.87479208407314,599.2238508729757
1.7089450546730522E12,2.2717391304347827,-6.326086956521739,4.010869565217392,3.5460762436480815,0.923228969958898,4.4693052136069795,484.8804175711176,599.1959398026395
1.708945054692584E12,2.1847826086956523,-6.478260869565217,3.9891304347826084,3.553144163268109,0.9047658329922958,4.457909996260405,484.88243697672334,599.1944252484352
1.708945054712116E12,2.141304347826087,-6.510869565217391,3.9891304347826084,3.5529999200105573,0.8950294131075642,4.4480293331181215,484.88474486884417,599.1939925186625
1.708945054731648E12,2.119565217391304,-6.467391304347826,3.967391304347826,3.5540096228134184,0.8847160201926254,4.438725643006044,484.88770185562396,599.1939925186625
1.7089450547511797E12,2.141304347826087,-6.467391304347826,3.9565217391304346,3.566270299705303,0.8781529519740281,4.444423251679331,484.8889279233132,599.1831021527174
1.7089450547707117E12,2.1847826086956523,-6.423913043478261,3.869565217391304,3.5620151236075315,0.8879614934875364,4.449976617095068,484.89109157217644,599.2109411014249
1.7089450547902434E12,2.2065217391304346,-6.413043478260869,3.9239130434782608,3.5633133129254957,0.8849323850789532,4.448245698004449,484.8928946128958,599.2204611564233
1.7089450548097754E12,2.1739130434782608,-6.369565217391304,3.9456521739130435,3.563818164326926,0.877143249171167,4.440961413498093,484.8903703558887,599.2076235065011
1.7089450548293074E12,2.152173913043478,-6.304347826086956,3.902173913043478,3.5712466920908326,0.8659643967109196,4.437211088801752,484.89440916710015,599.2213987375974
1.708945054848839E12,2.0869565217391304,-6.271739130434782,3.869565217391304,3.554442352586073,0.8572376796290495,4.411680032215123,484.8981594917965,599.2296927249066
1.708945054868371E12,2.0543478260869565,-6.195652173913043,3.934782608695652,3.5509083927760594,0.8607716394390632,4.411680032215123,484.90090011368994,599.2331545630879
1.708945054887903E12,2.0543478260869565,-6.260869565217391,3.8478260869565215,3.547590797852373,0.892072426327756,4.439663224180129,484.90515528978773,599.2281781707023
1.7089450549074348E12,2.0652173913043477,-6.260869565217391,3.8260869565217392,3.47842615585639,0.9421248366981549,4.420550992554545,484.91099714171855,599.2364000363827
1.7089450549269668E12,2.0652173913043477,-6.271739130434782,3.9130434782608696,3.488378940627449,0.9418363501830518,4.430215290810501,484.9104922903171,599.2051713711228
1.7089450549464985E12,2.043478260869565,-6.380434782608695,3.858695652173913,3.523790660356362,0.8250714331950468,4.348862093551409,484.91128562823366,599.2338036577468
1.7089450549660305E12,1.9891304347826086,-6.4021739130434785,3.8478260869565215,3.55552417701771,0.7729274955901504,4.32845167260786,484.9165505071343,599.2252933055513
1.7089450549855625E12,1.9239130434782608,-6.434782608695652,3.8478260869565215,3.5743479221281915,0.724245396166491,4.2985933182946825,484.92022871020185,599.249165564676
1.7089450550050942E12,1.8804347826086956,-6.434782608695652,3.934782608695652,3.5816322066345463,0.7240290312801636,4.30566123791471,484.92477237281474,599.2419534017985
1.7089450550246262E12,1.8369565217391304,-6.434782608695652,3.9130434782608696,3.615096642386513,0.7526613179041526,4.367757960290666,484.92946027868516,599.2642389850902
1.7089450550441582E12,1.7826086956521738,-6.413043478260869,3.8478260869565215,2.7850488168059373,1.6316076077947148,4.416656424600652,484.9345087926995,599.3310236133366
1.70894505506369E12,1.8043478260869565,-6.445652173913043,3.869565217391304,2.9810032821897607,1.5555192894362557,4.5365225716260165,484.93097483288943,598.875070676216
1.708945055083222E12,1.8152173913043477,-6.423913043478261,3.8152173913043477,3.4563569374509977,0.7158792872284994,4.172236224679497,484.9365281983052,599.2900585281919
1.7089450551027537E12,1.7934782608695652,-6.3478260869565215,4.032608695652174,3.529848877173529,0.8009106875551568,4.330759564728686,484.93854760391093,599.3012373806522
1.7089450551222856E12,1.7608695652173914,-6.326086956521739,3.8478260869565215,3.5264591606210662,0.7854045373683616,4.311863697989428,484.94222580697846,599.3114786519383
1.7089450551418176E12,1.75,-6.315217391304348,3.8369565217391304,3.5202567005463483,0.7781202528620068,4.298376953408355,484.94265853675114,599.3185465715584
1.7089450551613494E12,1.8478260869565217,-6.260869565217391,3.902173913043478,3.501505077064643,0.7887942539208237,4.290299330985467,484.94749068587913,599.3427073171982
1.7089450551808813E12,1.8152173913043477,-6.271739130434782,3.934782608695652,3.480445561462112,0.7892991053222547,4.269744666784367,484.9515294970906,599.3518667640527
1.7089450552004133E12,1.7826086956521738,-6.315217391304348,3.934782608695652,3.4606121135487693,0.7936985246775774,4.254310638226347,484.95261132152217,599.3711953605647
1.708945055219945E12,1.8043478260869565,-6.326086956521739,3.8369565217391304,3.4268591912816992,0.7869912132014294,4.213850404483129,484.954919213643,599.4306957043048
1.708945055239477E12,1.7608695652173914,-6.33695652173913,3.8260869565217392,3.389067457803185,0.8142531888786784,4.203320646681863,484.9547749703855,599.4752668708882
1.7089450552590088E12,1.7717391304347825,-6.358695652173913,3.8260869565217392,3.3237973837610943,0.8014876605853627,4.125285044346457,484.9579483220516,599.5548891490566
1.7089450552785408E12,1.7608695652173914,-6.380434782608695,3.891304347826087,3.3054784900520433,0.8125943914168348,4.118072881468878,484.9627804711796,599.5514994325041
1.7089450552980728E12,1.7826086956521738,-6.391304347826087,3.902173913043478,3.3813504435241755,0.764345021765831,4.145695465290006,484.9704253638298,599.4467067058929
1.7089450553176045E12,1.75,-6.380434782608695,3.9130434782608696,3.449072652944643,0.712922300448692,4.161994953393335,484.97453629667,599.3450152093191
1.7089450553371365E12,1.7717391304347825,-6.434782608695652,3.891304347826087,3.4996299147164724,0.6499601185274266,4.149590033243899,484.97475266155635,599.3033289078867
1.7089450553566685E12,1.8043478260869565,-6.380434782608695,3.869565217391304,3.512539686267339,0.6156302232301498,4.128169909497489,484.97807025648007,599.2775814864137
1.7089450553762002E12,1.7934782608695652,-6.315217391304348,3.8260869565217392,3.518381538198178,0.5923349371355697,4.1107164753337475,484.98045027022965,599.2840003113747
1.7089450553957322E12,1.826086956521739,-6.293478260869565,3.8260869565217392,3.526242795734739,0.552091068278679,4.078333864013418,484.98766243310723,599.2913567175099
1.708945055415264E12,1.8043478260869565,-6.271739130434782,3.793478260869565,3.5344646614151793,0.5462492163478396,4.080713877763019,484.98766243310723,599.2883276091013
1.708945055434796E12,1.8369565217391304,-6.282608695652174,3.869565217391304,3.5187421463420567,0.5508650005894897,4.0696071469315465,484.9927830687503,599.3008767725083
1.708945055454328E12,1.858695652173913,-6.282608695652174,3.934782608695652,3.5082123885407914,0.5694723808136444,4.077684769354436,484.9928551903791,599.2989294885314
1.7089450554738596E12,1.8804347826086956,-6.326086956521739,3.891304347826087,3.5098711860026346,0.5401909995306728,4.050062185533307,484.99054729825826,599.3072234758406
1.7089450554933916E12,1.891304347826087,-6.315217391304348,3.8369565217391304,3.504317820586899,0.5503601491880592,4.054677969774958,484.99379277155316,599.3149404901195
1.7089450555129236E12,1.8695652173913042,-6.3478260869565215,3.869565217391304,3.515857281191025,0.5200690651022275,4.035926346293253,484.99646127181785,599.2971264478119
1.7089450555324553E12,1.8478260869565217,-6.358695652173913,3.9130434782608696,3.5160015244485767,0.5022550227946074,4.018256547243184,484.9986970423099,599.3142192738318
1.7089450555519873E12,1.8369565217391304,-6.33695652173913,3.902173913043478,3.506986320851603,0.4997307657874539,4.006717086639057,485.0049716240134,599.324460545118
1.708945055571519E12,1.8478260869565217,-6.33695652173913,3.9130434782608696,3.5037408475566925,0.4952592248033554,3.999000072360048,485.0041782860969,599.3151568550059
1.708945055591051E12,1.9130434782608696,-6.3478260869565215,3.902173913043478,3.5161457677061283,0.45797234272627163,3.9741181104324,485.00598132681625,599.3219362881108
1.708945055610583E12,1.858695652173913,-6.304347826086956,3.858695652173913,3.4973220225956467,0.48977798101639536,3.987100003612042,485.00626981333136,599.3344854515178
1.7089450556301147E12,1.8695652173913042,-6.293478260869565,3.934782608695652,3.4988365767999388,0.5376667425235202,4.036503319323459,485.0035291914379,599.3260472209511
1.7089450556496467E12,1.8369565217391304,-6.315217391304348,3.934782608695652,3.4488562880583156,0.5713475431618149,4.0202038312201305,485.0077843675357,599.3298696672762
1.7089450556691787E12,1.8478260869565217,-6.315217391304348,3.9130434782608696,3.441427760294409,0.5621159746785129,4.003543734972922,485.0082892189371,599.3149404901195
1.7089450556887104E12,1.9130434782608696,-6.293478260869565,3.858695652173913,3.4587369512005988,0.4858834130625027,3.9446203642631015,485.008649827081,599.3354951543207
1.7089450557082424E12,1.8695652173913042,-6.25,3.858695652173913,3.50532752338976,0.4353261512906732,3.940653674680433,485.00872194870976,599.335062424548
1.7089450557277742E12,1.8695652173913042,-6.206521739130435,3.8152173913043477,3.5170833488802136,0.42681579909513,3.9438991479753436,485.0113183273457,599.3266241939813
1.7089450557473062E12,1.8478260869565217,-6.206521739130435,3.8369565217391304,3.5245839982728957,0.43078248867779845,3.955366486950694,485.01348197620894,599.3483328042428
1.7089450557668381E12,1.8478260869565217,-6.141304347826087,3.7717391304347827,3.5087893615709977,0.4872537240092427,3.9960430855802405,485.0094431649975,599.4233392981696
1.7089450557863699E12,1.858695652173913,-6.184782608695652,3.6956521739130435,2.903688896142113,1.2735958425516896,4.177284738693802,485.0124722734061,599.4697135054724
1.7089450558059019E12,1.8804347826086956,-6.1521739130434785,3.8260869565217392,3.270427378467009,0.9017367245837122,4.172164103050721,485.00396192121053,599.108312023677
