Shimmer_6D72_TimestampSync_Unix_CAL,Shimmer_6D72_Accel_LN_X_CAL,Shimmer_6D72_Accel_LN_Y_CAL,Shimmer_6D72_Accel_LN_Z_CAL,Shimmer_6D72_ECG_LA-RA_24BIT_CAL,Shimmer_6D72_ECG_LL-LA_24BIT_CAL,Shimmer_6D72_ECG_LL-RA_24BIT_CAL,Shimmer_6D72_ECG_RESP_24BIT_CAL,Shimmer_6D72_ECG_Vx-RL_24BIT_CAL
ms,m/(s^2),m/(s^2),m/(s^2),mV,mV,mV,mV,mV
1.7089462575199028E12,2.3152173913043477,-6.510869565217391,3.2282608695652173,13.502106488002122,26.34235278872881,39.84445927673093,483.2964823599437,582.031713370289
1.7089462575394346E12,2.3152173913043477,-6.456521739130435,3.2717391304347827,13.494966446753317,26.344300072705757,39.83926651945907,483.29684296808756,582.0322182216905
1.7089462575589663E12,2.3043478260869565,-6.456521739130435,3.2391304347826084,13.48155182380102,26.339540045206554,39.821091869007574,483.2966266032013,582.0270254644187
1.7089462575784983E12,2.3043478260869565,-6.369565217391304,3.260869565217391,13.48515790523981,26.33312122024551,39.81827912548532,483.2958332652847,582.0237799911237
1.70894625759803E12,2.3043478260869565,-6.391304347826087,3.2391304347826084,13.489629446223908,26.32468298967874,39.81431243590265,483.294462954338,582.0293333565395
1.7089462576175618E12,2.3043478260869565,-6.413043478260869,3.293478260869565,13.484364567323276,26.327063003428343,39.81142757075162,483.29453507596673,582.0278188023351
1.7089462576370935E12,2.3043478260869565,-6.434782608695652,3.2717391304347827,13.490855513913097,26.317470826801163,39.80832634071426,483.2941023461941,582.0266648562747
1.7089462576566255E12,2.3152173913043477,-6.445652173913043,3.260869565217391,13.484436688952051,26.322086611042813,39.806523299994865,483.29316476502004,582.0329394379783
1.7089462576761572E12,2.3260869565217392,-6.456521739130435,3.25,13.504342258494171,26.309393204378274,39.813735462872444,483.2913617243006,582.0255109102143
1.708946257695689E12,2.3043478260869565,-6.456521739130435,3.282608695652174,13.503981650350292,26.31393686699115,39.81791851734144,483.2936696164214,582.0151253956706
1.7089462577152207E12,2.3369565217391304,-6.434782608695652,3.282608695652174,13.501529514971915,26.316749610513405,39.81827912548532,483.2913617243006,582.014981152413
1.7089462577347527E12,2.3152173913043477,-6.434782608695652,3.3043478260869565,13.503116190804983,26.31869689449035,39.82181308529533,483.2904962647553,582.0181545040792
1.7089462577542844E12,2.369565217391304,-6.4021739130434785,3.3260869565217392,13.499293744479866,26.32129327312628,39.820587017606144,483.2905683863841,582.0312085188876
1.7089462577738162E12,2.3369565217391304,-6.423913043478261,3.3043478260869565,13.503981650350292,26.32042781358097,39.82440946393126,483.292515670361,582.0136829630951
1.7089462577933481E12,2.3043478260869565,-6.423913043478261,3.3152173913043477,13.520497503339948,26.358003182173157,39.8785006855131,483.29128960267184,581.9985374210522
1.70894625781288E12,2.3152173913043477,-6.445652173913043,3.2717391304347827,13.549490398107816,26.385625765994284,39.9351161641021,483.28963080521,582.0035859350664
1.7089462578324116E12,2.3043478260869565,-6.413043478260869,3.2717391304347827,13.579997847079975,26.37386994050383,39.9538677875838,483.2898471700963,581.9987537859386
1.7089462578519434E12,2.3369565217391304,-6.445652173913043,3.3369565217391304,13.536075775155519,26.308167136689086,39.8442429118446,483.28789988611936,582.0200296664274
1.7089462578714753E12,2.3152173913043477,-6.467391304347826,3.3043478260869565,13.515448989325643,26.267779024574644,39.783228013900285,483.28977504846756,582.0269533427899
1.708946257891007E12,2.3260869565217392,-6.445652173913043,3.358695652173913,13.520858111483827,26.264677794537285,39.78553590602111,483.2936696164214,582.0172890445339
1.7089462579105388E12,2.3152173913043477,-6.489130434782608,3.293478260869565,13.530522409739783,26.25342682044826,39.78394923018804,483.29604963017107,582.0305594242286
1.7089462579300706E12,2.3260869565217392,-6.478260869565217,3.260869565217391,13.53261393697428,26.265903862226473,39.79851779920075,483.29374173805024,582.0234193829798
1.7089462579496025E12,2.358695652173913,-6.456521739130435,3.2391304347826084,13.511842907886853,26.326990881799567,39.83883378968642,483.2963381166862,582.040728573886
1.7089462579691343E12,2.3369565217391304,-6.434782608695652,3.260869565217391,13.735564200349355,26.70180698654735,40.437371186896705,483.293813859679,581.8744882195579
1.708946257988666E12,2.3152173913043477,-6.413043478260869,3.2391304347826084,14.02094948541516,27.319240250496897,41.340189735912055,483.3005932927839,581.4489706097806
1.7089462580081978E12,2.3043478260869565,-6.434782608695652,3.1630434782608696,13.64418609669043,26.112789644335468,39.7569757410259,483.3013145090717,582.0661875088439
1.7089462580277297E12,2.3152173913043477,-6.434782608695652,3.293478260869565,13.608918620219066,26.29215613510086,39.901074755319925,483.3030454281623,582.0567395754742
1.7089462580472615E12,2.3152173913043477,-6.445652173913043,3.0760869565217392,13.610144687908255,26.295834338168426,39.90597902607668,483.3036945228213,582.063230522064
1.7089462580667932E12,2.3043478260869565,-6.423913043478261,3.1739130434782608,13.606322241583138,26.301171338697834,39.90749358028097,483.30650726634354,582.0679905495633
1.7089462580863252E12,2.3369565217391304,-6.413043478260869,3.141304347826087,13.627453878814446,26.288982783434722,39.91643666224917,483.3093200098658,582.0793136452811
1.708946258105857E12,2.3260869565217392,-6.467391304347826,3.141304347826087,13.636613325668971,26.302974379417225,39.9395877050862,483.31162790198664,582.0837851862651
1.7089462581253887E12,2.3478260869565215,-6.478260869565217,3.184782608695652,13.654066759832713,26.30838350157541,39.96245026140812,483.3093200098658,582.0888337002795
1.7089462581449204E12,2.3260869565217392,-6.510869565217391,3.141304347826087,13.683348141115683,26.32994786857937,40.013296009695054,483.3093200098658,582.0943149440665
1.7089462581644524E12,2.3043478260869565,-6.489130434782608,3.1630434782608696,13.73102053773648,26.340766112895746,40.07178665063223,483.3093200098658,582.1150138515251
1.7089462581839841E12,2.3369565217391304,-6.456521739130435,3.119565217391304,13.783380840227705,26.345381897137393,40.1287627373651,483.3078775772903,582.1379485294758
1.7089462582035159E12,2.3478260869565215,-6.413043478260869,3.0978260869565215,13.817638613896206,26.370912953724023,40.18855156762023,483.31032971266865,582.1417709758009
1.7089462582230476E12,2.3369565217391304,-6.391304347826087,3.0869565217391304,13.85095880639062,26.412455011898878,40.2634138182895,483.3106903208125,582.1150859731539
1.7089462582425796E12,2.293478260869565,-6.380434782608695,3.0978260869565215,13.786482070265064,26.45046311026372,40.236945180528785,483.3143685238801,582.0639517383519
1.7089462582621113E12,2.293478260869565,-6.434782608695652,3.119565217391304,13.670510491193593,26.415844728451344,40.086355219644936,483.3129260913046,582.028828505138
1.708946258281643E12,2.3260869565217392,-6.434782608695652,3.108695652173913,13.634666041692025,26.350430411151695,39.98509645284372,483.315378226683,582.0290448700243
1.7089462583011748E12,2.3043478260869565,-6.456521739130435,3.141304347826087,13.62139566199728,26.306075609454584,39.927471271451864,483.31386367247865,582.036545519417
1.7089462583207068E12,2.3152173913043477,-6.478260869565217,3.1304347826086953,13.623487189231778,26.30650833922724,39.92999552845902,483.31415215899375,582.0264484913885
1.7089462583402385E12,2.3152173913043477,-6.456521739130435,3.1304347826086953,13.617140485899506,26.305642879681933,39.92278336558144,483.31444064550885,582.0221211936619
1.7089462583597703E12,2.3043478260869565,-6.478260869565217,3.010869565217391,13.61331803957439,26.299945271008646,39.913263310583034,483.31559459156927,582.0253666669568
1.7089462583793022E12,2.3152173913043477,-6.413043478260869,3.043478260869565,13.613534404460717,26.30261377127335,39.916148175734065,483.3190564297505,582.0051004892708
1.708946258398834E12,2.3043478260869565,-6.380434782608695,3.0543478260869565,13.605456782037828,26.313287772332167,39.918744554369994,483.32158068675767,582.0141878144965
1.7089462584183657E12,2.3043478260869565,-6.380434782608695,3.043478260869565,13.60920710673417,26.326990881799567,39.936197988533735,483.32100371372746,581.9963016505601
1.7089462584378975E12,2.3152173913043477,-6.467391304347826,3.0978260869565215,13.606754971355793,26.330669084867132,39.93742405622292,483.3232394842195,582.0149090307843
1.7089462584574294E12,2.3043478260869565,-6.489130434782608,3.0543478260869565,13.610144687908255,26.33413092304837,39.94427561095662,483.32511464656767,582.0116635574893
1.7089462584769612E12,2.293478260869565,-6.510869565217391,3.0543478260869565,13.616996242641955,26.319634475664436,39.93663071830639,483.32641283588566,582.0051004892708
1.708946258496493E12,2.3043478260869565,-6.456521739130435,3.0543478260869565,13.613967134233372,26.321221151497504,39.935188285730874,483.3230231193332,581.9999798536277
1.7089462585160247E12,2.3043478260869565,-6.434782608695652,3.0543478260869565,13.61194772862765,26.31509081305156,39.92703854167921,483.3264849575144,581.9914695014321
1.7089462585355566E12,2.3152173913043477,-6.413043478260869,3.032608695652174,13.616130783096645,26.298719203319457,39.9148499864161,483.3279995117187,581.9921185960911
1.7089462585550884E12,2.3152173913043477,-6.4021739130434785,3.0,13.607259822757223,26.2956179732821,39.90287779603932,483.3254752547116,581.983175514123
1.70894625857462E12,2.3478260869565215,-6.423913043478261,3.0,13.602932525030676,26.29424766233536,39.89718018736603,483.3275667819461,581.9832476357517
1.7089462585941519E12,2.3260869565217392,-6.423913043478261,3.032608695652174,13.598460984046577,26.292300378358412,39.89076136240499,483.3291534577791,581.9868537171905
1.7089462586136838E12,2.3260869565217392,-6.434782608695652,3.043478260869565,13.594494294463908,26.291867648585757,39.886361943049664,483.3283601198626,581.9838967304107
1.7089462586332156E12,2.282608695652174,-6.434782608695652,3.0217391304347827,13.597523402872492,26.279534850065097,39.87705825293759,483.3284322414914,581.9818052031762
1.7089462586527473E12,2.293478260869565,-6.4021739130434785,3.010869565217391,13.594710659350236,26.2866748913139,39.881385550664135,483.33059589035463,581.9884403930236
1.7089462586722793E12,2.3043478260869565,-6.413043478260869,3.0,13.592547010486962,26.279751214951425,39.872298225438385,483.32879284963525,581.9957246775299
1.708946258691811E12,2.293478260869565,-6.4021739130434785,2.9782608695652173,13.602211308742918,26.291002189040448,39.893213497783364,483.3292977010367,581.9915416230609
1.7089462587113428E12,2.3152173913043477,-6.423913043478261,3.0217391304347827,13.591609429312877,26.35158435721211,39.943193786524986,483.3304516470971,581.970626350716
1.7089462587308745E12,2.3043478260869565,-6.413043478260869,3.0543478260869565,13.621179297110952,26.390385793493483,40.011565090604435,483.3287207280065,581.9641354041262
1.7089462587504065E12,2.3260869565217392,-6.445652173913043,3.0760869565217392,13.610000444650703,26.342497031986362,39.95249747663706,483.32893709289283,581.988945244425
1.7089462587699382E12,2.3152173913043477,-6.456521739130435,3.032608695652174,13.566006251097471,26.280039701466528,39.846045952564,483.32641283588566,581.9990422724536
1.70894625878947E12,2.3043478260869565,-6.456521739130435,3.0652173913043477,13.567592926930539,26.25140741484254,39.81900034177308,483.3256194979691,582.0173611661627
1.7089462588090017E12,2.282608695652174,-6.445652173913043,3.0652173913043477,13.564347453635628,26.246142535941907,39.81048998957753,483.327278295431,582.0167841931325
1.7089462588285337E12,2.3152173913043477,-6.4021739130434785,3.032608695652174,13.553168601175381,26.2476570901462,39.80082569132158,483.3221576597879,582.0110144628304
1.7089462588480654E12,2.3152173913043477,-6.467391304347826,3.0760869565217392,13.555115885152327,26.255374104425208,39.81048998957753,483.3229509977044,582.0198854231699
1.7089462588675972E12,2.3478260869565215,-6.456521739130435,3.0543478260869565,13.535859410269191,26.322086611042813,39.857946021312,483.32100371372746,582.0398631143407
1.708946258887129E12,2.2717391304347827,-6.467391304347826,3.0760869565217392,13.974647399741102,27.447905236232906,41.42255263597401,483.3159551997132,581.5281601581764
1.708946258906661E12,2.3260869565217392,-6.456521739130435,3.032608695652174,13.794992422460608,27.023974302288806,40.818966724749416,483.3170370241448,581.6568251439124
1.7089462589261926E12,2.3152173913043477,-6.413043478260869,3.043478260869565,13.592474888858186,26.07168031593327,39.664155204791456,483.3175418755462,582.1254714876976
1.7089462589457244E12,2.3043478260869565,-6.413043478260869,3.119565217391304,13.582594225715903,26.289848242980035,39.87244246869594,483.3163879294858,582.0567395754742
1.7089462589652563E12,2.3260869565217392,-6.423913043478261,3.043478260869565,13.586200307154693,26.27895787703489,39.86515818418958,483.3161715645995,582.0516910614599
1.708946258984788E12,2.3478260869565215,-6.434782608695652,3.043478260869565,13.579132387534665,26.285232458738385,39.86436484627305,483.3179024836901,582.074193009638
1.7089462590043198E12,2.358695652173913,-6.456521739130435,3.032608695652174,13.588508199275518,26.291362797184327,39.87987099645984,483.3131424561909,582.0663317521014
1.7089462590238516E12,2.3260869565217392,-6.434782608695652,3.0978260869565215,13.605673146924156,26.288838540177174,39.89451168710133,483.3108345640701,582.082559118576
1.7089462590433835E12,2.293478260869565,-6.467391304347826,3.0543478260869565,13.624208405519536,26.296122824683525,39.92033123020306,483.31032971266865,582.0829197267199
1.7089462590629153E12,2.293478260869565,-6.489130434782608,3.043478260869565,13.654860097749246,26.307085312257446,39.96194541000669,483.30549756354065,582.1071525939885
1.708946259082447E12,2.3478260869565215,-6.467391304347826,3.043478260869565,13.684574208804872,26.323024192216895,40.00759840102177,483.30153087395803,582.1207835818271
1.7089462591019788E12,2.3369565217391304,-6.423913043478261,3.0978260869565215,13.735275713834252,26.327639976458553,40.062915690292805,483.29965571160983,582.1339818398932
1.7089462591215107E12,2.3260869565217392,-6.423913043478261,3.0869565217391304,13.777250501781763,26.348987978576183,40.12623848035795,483.29684296808756,582.1451606923533
1.7089462591410425E12,2.3260869565217392,-6.413043478260869,3.0869565217391304,13.785400245833427,26.37437479190526,40.15977503773869,483.2992229818372,582.1212163115998
1.7089462591605742E12,2.3152173913043477,-6.467391304347826,3.0652173913043477,13.664091666232547,26.396804618454535,40.06089628468708,483.29900661695086,582.0704426849417
1.708946259180106E12,2.3260869565217392,-6.423913043478261,3.0543478260869565,13.585262725980607,26.362474723157256,39.94773744913786,483.29540053551204,582.060994751572
1.708946259199638E12,2.3260869565217392,-6.434782608695652,3.108695652173913,13.538888518677775,26.311628974870324,39.8505174935481,483.29518417062576,582.0626535490338
1.7089462592191697E12,2.3260869565217392,-6.456521739130435,3.141304347826087,13.538167302390017,26.29439190559291,39.832559207982925,483.2933811299063,582.0550086563836
1.7089462592387014E12,2.3043478260869565,-6.445652173913043,3.152173913043478,13.53160423417142,26.284222755935524,39.81582699010694,483.29287627850493,582.0656105358137
1.7089462592582332E12,2.3369565217391304,-6.478260869565217,3.0760869565217392,13.524175706407513,26.285737310139815,39.80991301654733,483.29302052176246,582.0586147378224
1.7089462592777651E12,2.3260869565217392,-6.456521739130435,3.0869565217391304,13.506866515501324,26.294464027221686,39.80133054272301,483.2913617243006,582.067125090018
1.7089462592972969E12,2.3260869565217392,-6.467391304347826,3.010869565217391,13.497634947018023,26.302830136159677,39.8004650831777,483.29316476502004,582.0744814961531
1.7089462593168286E12,2.3152173913043477,-6.391304347826087,3.1304347826086953,13.503476798948862,26.299079811463336,39.802556610412196,483.2915059675582,582.0664759953589
1.7089462593363606E12,2.282608695652174,-6.413043478260869,3.108695652173913,13.50470286663805,26.307157433886225,39.81186030052427,483.2886932240359,582.0696493470251
1.7089462593558923E12,2.3260869565217392,-6.413043478260869,3.141304347826087,13.492802797890043,26.315523542824216,39.80832634071426,483.2876835212331,582.0794578885386
1.708946259375424E12,2.3260869565217392,-6.456521739130435,3.108695652173913,13.507299245273979,26.293814932562704,39.80111417783668,483.2866016968014,582.0846506458105
1.7089462593949558E12,2.3260869565217392,-6.478260869565217,3.108695652173913,13.495831906298628,26.29525736513822,39.791089271436846,483.28616896702874,582.0733275500927
1.7089462594144878E12,2.3043478260869565,-6.478260869565217,3.141304347826087,13.492153703231061,26.292949473017394,39.785103176248455,483.2869623049453,582.0795300101674
1.7089462594340195E12,2.282608695652174,-6.456521739130435,3.141304347826087,13.489124594822478,26.278597268891012,39.76772186371349,483.28292349373385,582.092223416832
1.7089462594535513E12,2.3043478260869565,-6.423913043478261,3.184782608695652,13.49164885182963,26.262946875446666,39.754595727276296,483.28263500721874,582.0818379022883
1.708946259473083E12,2.3152173913043477,-6.423913043478261,3.141304347826087,13.47419541766589,26.26337960521932,39.73757502288521,483.28292349373385,582.0905646193701
1.708946259492615E12,2.3152173913043477,-6.413043478260869,3.1630434782608696,13.462655957061763,26.262586267302787,39.72524222436455,483.28025499346916,582.0830639699774
1.7089462595121467E12,2.3043478260869565,-6.434782608695652,3.1630434782608696,13.462439592175436,26.255085617910105,39.71752521008554,483.28025499346916,582.1021040799742
1.7089462595316785E12,2.3152173913043477,-6.456521739130435,3.1739130434782608,13.459554727024404,26.252489239274176,39.71204396629858,483.28083196649936,582.0982816336491
1.7089462595512102E12,2.3043478260869565,-6.456521739130435,3.2065217391304346,13.450034672026,26.262081415901356,39.712116087927356,483.27953377718137,582.0884009705068
1.7089462595707422E12,2.3260869565217392,-6.434782608695652,3.184782608695652,13.449457698995793,26.25429227999357,39.703749978989364,483.2773701283181,582.1033301476634
1.708946259590274E12,2.3152173913043477,-6.423913043478261,3.2065217391304346,13.460203821683386,26.245493441282925,39.70569726296631,483.27787497971957,582.0990028499368
1.7089462596098057E12,2.3369565217391304,-6.445652173913043,3.2282608695652173,13.445851617557004,26.245637684540476,39.69148930209748,483.27902892578,582.1080180535338
1.7089462596293376E12,2.3260869565217392,-6.434782608695652,3.217391304347826,13.447654658276399,26.247224360373544,39.69487901864994,483.27672103365916,582.1023204448605
1.7089462596488694E12,2.3260869565217392,-6.456521739130435,3.217391304347826,13.46647840338688,26.280616674496734,39.747095077883614,483.27700952017426,582.1067919858447
1.7089462596684011E12,2.3260869565217392,-6.434782608695652,3.217391304347826,13.477657255847127,26.304200447106417,39.781857702953545,483.2743410199095,582.0859488351284
1.7089462596879329E12,2.3369565217391304,-6.423913043478261,3.2391304347826084,13.500880420312933,26.33449153119225,39.83537195150518,483.2747737496822,582.0879682407342
1.7089462597074648E12,2.3260869565217392,-6.434782608695652,3.25,13.49251431137494,26.292084013472085,39.784598324847025,483.2773701283181,582.1065756209583
1.7089462597269966E12,2.3260869565217392,-6.445652173913043,3.2391304347826084,13.454938942782753,26.22537150685448,39.68031044963723,483.27787497971957,582.119557514138
1.7089462597465283E12,2.3260869565217392,-6.423913043478261,3.25,13.46323293009197,26.18476702985371,39.64799995994568,483.27470162805344,582.130520001712
1.70894625976606E12,2.3369565217391304,-6.413043478260869,3.217391304347826,13.459049875622974,26.183252475649418,39.64230235127239,483.273547681993,582.133404866863
1.708946259785592E12,2.3369565217391304,-6.434782608695652,3.260869565217391,13.458617145850319,26.18613734080045,39.64475448665077,483.2736198036218,582.0902040112262
1.7089462598051238E12,2.3478260869565215,-6.445652173913043,3.282608695652174,13.463016565205642,26.18974342223924,39.65275998744488,483.27282646570524,582.0878239974766
1.7089462598246555E12,2.3369565217391304,-6.434782608695652,3.25,13.448447996192932,26.29403129744903,39.74247929364196,483.2726101008189,582.0961901064146
1.7089462598441873E12,2.358695652173913,-6.423913043478261,3.293478260869565,13.98496079265604,27.39078490624248,41.37574569889852,483.2700858438118,581.4814974643585
1.7089462598637192E12,2.3478260869565215,-6.423913043478261,3.25,13.760229797390677,26.806239105014697,40.566468902405376,483.2737640468793,581.7515929641239
1.708946259883251E12,2.3260869565217392,-6.380434782608695,3.293478260869565,13.515088381181764,26.191041611557203,39.706129992738965,483.2737640468793,582.1527334633748
1.7089462599027827E12,2.3043478260869565,-6.391304347826087,3.3260869565217392,13.5093186508797,26.215562965340972,39.72488161622067,483.2721052494175,582.1398958134528
1.7089462599223147E12,2.3260869565217392,-6.445652173913043,3.2282608695652173,13.519199314021984,26.19486405788232,39.7140633719043,483.2727543440765,582.1619650318581
1.7089462599418464E12,2.380434782608696,-6.423913043478261,3.2391304347826084,13.52013689519607,26.196811341859267,39.716948237055334,483.2729707089628,582.1698262893947
1.7089462599613782E12,2.358695652173913,-6.369565217391304,3.282608695652174,13.529007855535491,26.20719685640298,39.73620471193847,483.26720097866075,582.182591817688
1.70894625998091E12,2.3369565217391304,-6.391304347826087,3.3804347826086953,13.52439207129384,26.219962384696295,39.744354455990134,483.2670567354032,582.1679511270465
1.708946260000442E12,2.3043478260869565,-6.423913043478261,3.369565217391304,13.55764014215948,26.212389613674837,39.770029755834315,483.2648209649111,582.1810772634838
1.7089462600199736E12,2.3043478260869565,-6.456521739130435,3.402173913043478,13.58829183438919,26.228328493634287,39.816620328023475,483.2622245862752,582.2046610360934
1.7089462600395054E12,2.369565217391304,-6.434782608695652,3.358695652173913,13.616924121013179,26.245854049426804,39.86277817043998,483.2608542753285,582.225359943552
1.708946260059037E12,2.380434782608696,-6.380434782608695,3.358695652173913,13.686882100925697,26.267202051544434,39.95408415247013,483.2584021399501,582.2491600810481
1.708946260078569E12,2.3369565217391304,-6.369565217391304,3.358695652173913,13.727558699555242,26.275351795596098,40.00291049515134,483.2589069913515,582.2340145390051
1.7089462600981008E12,2.3152173913043477,-6.391304347826087,3.369565217391304,13.68991120933428,26.339107315433896,40.029018524768176,483.25883486972276,582.1889385210203
1.7089462601176326E12,2.3043478260869565,-6.391304347826087,3.4239130434782608,13.613606526089493,26.325836935739154,39.939443461828645,483.2586185048364,582.1517237605719
1.7089462601371643E12,2.3152173913043477,-6.391304347826087,3.4130434782608696,13.554827398637224,26.270375403210572,39.825202801847794,483.258113653435,582.1290775691364
1.7089462601566963E12,2.3152173913043477,-6.423913043478261,3.4239130434782608,13.508092583190512,26.223207857991206,39.731300441181716,483.25760880203353,582.1329000154615
1.708946260176228E12,2.3478260869565215,-6.434782608695652,3.4130434782608696,13.49525493326842,26.22349634450631,39.71875127777473,483.25551727479905,582.1346309345521
1.7089462601957598E12,2.3152173913043477,-6.445652173913043,3.4456521739130435,13.494173108836783,26.21916904677976,39.713342155616544,483.2583300183213,582.1496322333375
1.7089462602152917E12,2.3152173913043477,-6.445652173913043,3.3804347826086953,13.491432486943303,26.214697505795662,39.706129992738965,483.25595000457173,582.1319624342874
1.7089462602348235E12,2.3043478260869565,-6.391304347826087,3.3804347826086953,13.500880420312933,26.212245370417286,39.71312579073022,483.25912335623786,582.1401121783391
1.7089462602543552E12,2.3043478260869565,-6.380434782608695,3.402173913043478,13.501024663570485,26.217942979090573,39.718967642661056,483.25970032926807,582.1467473681864
1.708946260273887E12,2.3369565217391304,-6.369565217391304,3.4130434782608696,13.493668257435353,26.232078818330628,39.72574707576598,483.25876274809394,582.1466031249289
1.708946260293419E12,2.3152173913043477,-6.391304347826087,3.4239130434782608,13.497490703760471,26.225948479884686,39.723439183645155,483.2589069913515,582.1503534496252
1.7089462603129507E12,2.3152173913043477,-6.423913043478261,3.434782608695652,13.490855513913097,26.233449129277368,39.724304643190465,483.2598445725256,582.1466752465577
1.7089462603324824E12,2.3043478260869565,-6.467391304347826,3.467391304347826,13.49164885182963,26.226092723142237,39.71774157497187,483.25739243714725,582.1442952328081
1.7089462603520142E12,2.3043478260869565,-6.445652173913043,3.4239130434782608,13.504414380122947,26.214481140909335,39.71889552103228,483.2547960585113,582.1481176791332
1.7089462603715461E12,2.3152173913043477,-6.456521739130435,3.402173913043478,13.507515610160306,26.207485342918083,39.71500095307839,483.25436332873863,582.1479734358757
1.708946260391078E12,2.3260869565217392,-6.445652173913043,3.4565217391304346,13.491216122056976,26.211452032500752,39.70266815455773,483.25818577506374,582.1424200704599
1.7089462604106096E12,2.3152173913043477,-6.391304347826087,3.4130434782608696,13.496408879328834,26.202797437047657,39.69920631637649,483.25912335623786,582.1419873406873
1.7089462604301414E12,2.3260869565217392,-6.380434782608695,3.3804347826086953,13.499942839138848,26.193782233450683,39.69372507258953,483.2578251669199,582.1372273131881
1.7089462604496733E12,2.3152173913043477,-6.4021739130434785,3.369565217391304,13.508669556220719,26.18765189500474,39.69632145122546,483.2580415318062,582.134991542696
1.708946260469205E12,2.3260869565217392,-6.391304347826087,3.369565217391304,13.506650150614997,26.18750765174719,39.694157802362184,483.26208034301766,582.1366503401579
1.7089462604887368E12,2.3152173913043477,-6.445652173913043,3.369565217391304,13.510400475311338,26.189599178981688,39.69999965429302,483.2612870051011,582.1435740165203
1.7089462605082688E12,2.3260869565217392,-6.456521739130435,3.3369565217391304,13.508020461561737,26.18253125936166,39.690551720923395,483.2611427618436,582.1449443274671
1.7089462605278005E12,2.3260869565217392,-6.445652173913043,3.358695652173913,13.511626543000526,26.179357907695525,39.69098445069605,483.261647613245,582.1408333946268
1.7089462605473323E12,2.3369565217391304,-6.456521739130435,3.3260869565217392,13.512347759288284,26.18765189500474,39.69999965429302,483.26208034301766,582.1432855300052
1.708946260566864E12,2.3152173913043477,-6.413043478260869,3.3152173913043477,13.522949638718325,26.182819745876763,39.70576938459509,483.2622245862752,582.1442231111793
1.708946260586396E12,2.3152173913043477,-6.423913043478261,3.3260869565217392,13.51977628705219,26.187291286860862,39.70706757391305,483.26323428907807,582.1461703951562
1.7089462606059277E12,2.3043478260869565,-6.423913043478261,3.3043478260869565,13.532830301860608,26.179502150953077,39.71233245281368,483.26647976237297,582.1533825580339
1.7089462606254595E12,2.3369565217391304,-6.423913043478261,3.3152173913043477,13.525401774096702,26.18339671890697,39.70879849300367,483.26835492472117,582.1472522195879
1.7089462606449912E12,2.3369565217391304,-6.445652173913043,3.3043478260869565,13.532397572087953,26.180223367240835,39.71262093932879,483.2682106814636,582.1609553290552
1.7089462606645232E12,2.3260869565217392,-6.456521739130435,3.3152173913043477,13.533551518148366,26.180079123983283,39.71363064213165,483.26929250589524,582.1570607611014
1.708946260684055E12,2.282608695652174,-6.423913043478261,3.293478260869565,13.544514005722286,26.188445232921275,39.73295923864356,483.2716725196448,582.1632632211761
1.7089462607035867E12,2.3043478260869565,-6.423913043478261,3.2717391304347827,13.552231020001296,26.22847273689184,39.78070375689313,483.27224949267503,582.1396794485664
1.7089462607231184E12,2.3043478260869565,-6.456521739130435,3.25,13.561967439886027,26.244267373593736,39.80623481347976,483.2729707089628,582.1316018261435
1.7089462607426504E12,2.3369565217391304,-6.445652173913043,3.25,13.596225213554527,26.254869253023777,39.8510944665783,483.2783077094922,582.1309527314845
1.7089462607621821E12,2.3369565217391304,-6.434782608695652,3.282608695652174,13.558433480076014,26.20719685640298,39.76563033647899,483.2791731690375,582.1371551915593
1.7089462607817139E12,2.3369565217391304,-6.445652173913043,3.2065217391304346,13.54033095125329,26.134498254596984,39.67482920585027,483.2827792504763,582.1714850868566
1.7089462608012458E12,2.3478260869565215,-6.4021739130434785,3.2282608695652173,13.546100681555354,26.138104336035774,39.684205017591125,483.2845822911957,582.1696099245083
1.7089462608207776E12,2.3152173913043477,-6.413043478260869,3.2391304347826084,13.535859410269191,26.160678405842596,39.696537816111785,483.290928994528,582.1616765453431
1.7089462608403093E12,2.3152173913043477,-6.434782608695652,3.2391304347826084,13.547038262729439,26.150437134556434,39.69747539728587,483.29287627850493,582.1616044237143
1.708946260859841E12,2.3152173913043477,-6.467391304347826,3.2282608695652173,13.52201205754424,26.20943262689503,39.73144468443927,483.2932368866488,582.181942723029
1.708946260879373E12,2.3260869565217392,-6.445652173913043,3.1956521739130435,13.793189381741213,26.6131695047819,40.406358886523115,483.2923714271035,582.0044513946118
1.7089462608989048E12,2.3152173913043477,-6.434782608695652,3.2391304347826084,14.092061411388089,27.421364476843415,41.5134258882315,483.2922271838459,581.5146734135955
1.7089462609184365E12,2.293478260869565,-6.423913043478261,3.1630434782608696,13.62911267627629,25.942438357167052,39.57155103344334,483.2989344953221,582.227956322188
1.7089462609379683E12,2.3152173913043477,-6.4021739130434785,3.282608695652174,13.604447079234967,26.150725621071537,39.7551727003065,483.29994419812493,582.2037234549193
1.7089462609575002E12,2.260869565217391,-6.445652173913043,3.0543478260869565,13.589445780449603,26.16522206845547,39.75466784890507,483.298646008807,582.1984585760187
1.708946260977032E12,2.3152173913043477,-6.391304347826087,3.184782608695652,13.587642739730208,26.16868390663671,39.756326646366915,483.3020357253594,582.1862700207556
1.7089462609965637E12,2.3369565217391304,-6.3478260869565215,3.1956521739130435,13.615553810066439,26.1633469061073,39.77890071617374,483.30080965767024,582.1970882650719
1.7089462610160955E12,2.3369565217391304,-6.467391304347826,3.260869565217391,13.619087769876453,26.18130519167247,39.80039296154892,483.2993672250947,582.196727656928
1.7089462610356274E12,2.293478260869565,-6.532608695652174,3.1956521739130435,13.629761770935271,26.188084624777392,39.817846395712664,483.3005932927839,582.1999010085942
1.7089462610551592E12,2.282608695652174,-6.521739130434782,3.141304347826087,13.670005639792162,26.192628287390267,39.86263392718243,483.2997278332386,582.2185083888183
1.708946261074691E12,2.3260869565217392,-6.445652173913043,3.1630434782608696,13.694959723348585,26.20575442382746,39.900714147176046,483.2988623736933,582.2379812285878
1.7089462610942227E12,2.3478260869565215,-6.423913043478261,3.1630434782608696,13.760734648792107,26.227174547573867,39.987909196365976,483.2967708464588,582.2566607304408
1.7089462611137546E12,2.3260869565217392,-6.3478260869565215,3.1739130434782608,13.798742747156949,26.244339495222505,40.043082242379455,483.29698721134514,582.2525497976005
1.7089462611332864E12,2.3043478260869565,-6.391304347826087,3.141304347826087,13.826148966091749,26.287973080631865,40.114122046723615,483.2995114683523,582.2400006341935
1.708946261152818E12,2.3043478260869565,-6.4021739130434785,3.141304347826087,13.784895394431997,26.322230854300365,40.107126248732364,483.29929510346597,582.1916791429138
1.70894626117235E12,2.3043478260869565,-6.445652173913043,3.1630434782608696,13.699575507590236,26.306580460856015,40.00615596844625,483.3009539009278,582.1429970434901
1.7089462611918818E12,2.3478260869565215,-6.467391304347826,3.1630434782608696,13.627958730215877,26.239074616321876,39.86703334653775,483.30210784698824,582.1521564903446
1.7089462612114136E12,2.3478260869565215,-6.478260869565217,3.184782608695652,13.593484591661047,26.224794533824273,39.81827912548532,483.3018914821019,582.1266975553867
1.7089462612309453E12,2.3260869565217392,-6.489130434782608,3.152173913043478,13.595720362153097,26.208711410607272,39.80443177276037,483.30311754979107,582.1378042862183
1.7089462612504773E12,2.3152173913043477,-6.478260869565217,3.141304347826087,13.60098524105373,26.209144140379927,39.810129381433654,483.3048484688817,582.1328278938328
1.708946261270009E12,2.3260869565217392,-6.445652173913043,3.152173913043478,13.600408268023523,26.20481684265338,39.8052251106769,483.3093200098658,582.1222981360314
1.7089462612895408E12,2.3152173913043477,-6.4021739130434785,3.0652173913043477,13.582738468973455,26.22212603355957,39.80486450253302,483.3108345640701,582.1248945146674
1.7089462613090725E12,2.3043478260869565,-6.380434782608695,3.0978260869565215,13.590094875108585,26.22450604730917,39.81460092241775,483.3080939421766,582.1437903814067
1.7089462613286045E12,2.3260869565217392,-6.434782608695652,3.0978260869565215,13.58829183438919,26.237776427003915,39.826068261393104,483.3102575910399,582.1350636643248
1.7089462613481362E12,2.3260869565217392,-6.456521739130435,3.0869565217391304,13.581873009428145,26.24628677919946,39.8281597886276,483.31076244244133,582.130159393568
1.708946261367668E12,2.293478260869565,-6.478260869565217,3.0760869565217392,13.589445780449603,26.252561360902952,39.84200714135255,483.31076244244133,582.1274908933033
1.7089462613871997E12,2.3043478260869565,-6.478260869565217,3.0652173913043477,13.580863306625284,26.238786129806776,39.81964943643206,483.3080218205478,582.1238126902357
1.7089462614067317E12,2.3369565217391304,-6.478260869565217,3.0869565217391304,13.604951930636398,26.23308852113349,39.838040451769885,483.30766121240396,582.1197017573955
1.7089462614262634E12,2.3260869565217392,-6.434782608695652,3.0869565217391304,13.600264024765972,26.223207857991206,39.823471882757175,483.3114115371003,582.118908419479
1.7089462614457952E12,2.3043478260869565,-6.434782608695652,3.043478260869565,13.597667646130043,26.205754423827464,39.803422069957506,483.31032971266865,582.1258320958415
1.7089462614653271E12,2.3152173913043477,-6.4021739130434785,3.0652173913043477,13.595576118895545,26.216356303257506,39.81193242215305,483.312132753388,582.114076270351
1.708946261484859E12,2.3369565217391304,-6.423913043478261,3.0652173913043477,13.593051861888393,26.197532558147024,39.790584420035415,483.31162790198664,582.1055659181554
1.7089462615043906E12,2.3478260869565215,-6.434782608695652,3.032608695652174,13.595071267494115,26.209721113410133,39.804792380904246,483.3118442668729,582.1157350678128
1.7089462615239224E12,2.3260869565217392,-6.445652173913043,3.010869565217391,13.585983942268365,26.206259275228895,39.79224321749726,483.31501761853906,582.1035465125498
1.7089462615434543E12,2.3369565217391304,-6.456521739130435,3.043478260869565,13.588147591131639,26.203879261479294,39.79202685261093,483.3194170378944,582.0969834443312
1.708946261562986E12,2.358695652173913,-6.434782608695652,3.0869565217391304,13.57458872492179,26.222414520074672,39.79700324499646,483.3212200786138,582.0802512264552
1.7089462615825178E12,2.3369565217391304,-6.467391304347826,3.032608695652174,13.57458872492179,26.203302288449088,39.777891013370876,483.32194129490154,582.0930167547484
1.7089462616020496E12,2.3369565217391304,-6.434782608695652,3.0652173913043477,13.578266927989356,26.201859855873572,39.780126783862926,483.32410494376484,582.0883288488781
1.7089462616215815E12,2.3369565217391304,-6.423913043478261,3.0543478260869565,13.580574820110181,26.209216262008702,39.78979108211888,483.32367221399215,582.0747699826682
1.7089462616411133E12,2.3260869565217392,-6.423913043478261,3.032608695652174,13.577112981928943,26.264677794537285,39.841790776466226,483.3247540384238,582.068711765851
1.708946261660645E12,2.3260869565217392,-6.413043478260869,3.0,13.611731363741322,26.27160147089976,39.88333283464108,483.32367221399215,582.04815710165
1.7089462616801768E12,2.3369565217391304,-6.413043478260869,3.032608695652174,13.630338743965478,26.263595970105644,39.89393471407112,483.325331011454,582.0552971428988
1.7089462616997087E12,2.3260869565217392,-6.434782608695652,3.0,13.591320942797774,26.216861154658936,39.80818209745671,483.3260522277418,582.0747699826682
1.7089462617192405E12,2.3260869565217392,-6.467391304347826,3.0,13.564708061779507,26.157288689290134,39.72199675106964,483.32410494376484,582.0856603486134
1.7089462617387722E12,2.3369565217391304,-6.445652173913043,3.0,13.564347453635628,26.15526928368441,39.71961673732004,483.32583586285546,582.0834245781213
1.7089462617583042E12,2.3152173913043477,-6.4021739130434785,3.0217391304347827,13.561462588484597,26.167385717318744,39.72884830580334,483.3271340521734,582.0726784554337
1.708946261777836E12,2.3260869565217392,-6.445652173913043,3.0,13.567304440415436,26.15786566232034,39.725170102735774,483.3259079844842,582.0651056844123
1.7089462617973677E12,2.3369565217391304,-6.445652173913043,3.0217391304347827,13.542710965002891,26.17567970462796,39.71839066963085,483.32698980891587,582.0731833068352
1.7089462618168994E12,2.3369565217391304,-6.434782608695652,3.032608695652174,13.898126351609989,26.982504365742727,40.880630717352716,483.32028249743973,581.7849852782471
1.7089462618364314E12,2.3369565217391304,-6.456521739130435,3.0,13.893438445739562,27.364027781966662,41.257466227706225,483.3254752547116,581.5180631301479
1.7089462618559631E12,2.3152173913043477,-6.413043478260869,2.9565217391304346,13.598172497531474,26.012684823594675,39.61085732112615,483.3247540384238,582.1448000842095
1.7089462618754949E12,2.293478260869565,-6.4021739130434785,3.0869565217391304,13.596153091925752,26.190031908754342,39.78618500068009,483.325331011454,582.0814051725156
1.7089462618950266E12,2.293478260869565,-6.434782608695652,2.9782608695652173,13.587642739730208,26.2020762207599,39.789718960490106,483.3244655519087,582.0794578885386
1.7089462619145586E12,2.380434782608696,-6.423913043478261,3.043478260869565,13.581296036397939,26.210370208069115,39.79166624446705,483.32482616005257,582.072245725661
1.7089462619340903E12,2.369565217391304,-6.413043478260869,3.0543478260869565,13.592042159085532,26.21678903303016,39.80883119211569,483.32194129490154,582.0669808467604
1.708946261953622E12,2.3152173913043477,-6.456521739130435,3.0869565217391304,13.610000444650703,26.217438127689142,39.827438572339844,483.32085947046994,582.0762124152437
1.7089462619731538E12,2.293478260869565,-6.532608695652174,3.010869565217391,13.629978135821599,26.23525216999676,39.86523030581836,483.3190564297505,582.0820542671745
1.7089462619926858E12,2.3152173913043477,-6.478260869565217,3.0217391304347827,13.655364949150677,26.24635890082823,39.90172384997891,483.3173255106599,582.0899876463399
1.7089462620122175E12,2.3478260869565215,-6.434782608695652,2.9891304347826084,13.693445169144294,26.252417117645397,39.94586228678969,483.3140079157362,582.1043398504663
1.7089462620317493E12,2.3152173913043477,-6.4021739130434785,3.0217391304347827,13.748257607013896,26.2804003096104,40.0286579166243,483.3111230505852,582.1116962566014
1.7089462620512812E12,2.3369565217391304,-6.4021739130434785,3.043478260869565,13.780279610190346,26.293093716274946,40.073373326465294,483.3087430368356,582.1274187716746
1.708946262070813E12,2.3043478260869565,-6.413043478260869,3.0543478260869565,13.788501475870786,26.332904855359182,40.12140633122997,483.3071563610025,582.0998683094822
1.7089462620903447E12,2.293478260869565,-6.445652173913043,3.0543478260869565,13.701955521339837,26.375168129821798,40.077123651161635,483.30708423937375,582.0434691957795
1.7089462621098765E12,2.3152173913043477,-6.467391304347826,3.0978260869565215,13.620385959194419,26.357065600999068,39.97745156019349,483.3047763472529,582.0144763010117
1.7089462621294084E12,2.3478260869565215,-6.467391304347826,3.0760869565217392,13.561390466855821,26.299224054720888,39.86061452157671,483.3020357253594,582.0199575447986
1.7089462621489402E12,2.3260869565217392,-6.456521739130435,3.108695652173913,13.556630439356619,26.28054455286796,39.837174992224575,483.3017472388443,582.0157744903296
1.708946262168472E12,2.3152173913043477,-6.478260869565217,3.119565217391304,13.54444188409351,26.269437822036487,39.813879706129995,483.3023242118745,582.0162072201023
1.7089462621880037E12,2.3369565217391304,-6.489130434782608,3.0217391304347827,13.539970343109411,26.27809241748958,39.81806276059899,483.3026126983896,582.0089229355959
1.7089462622075356E12,2.3260869565217392,-6.445652173913043,3.0652173913043477,13.525690260611805,26.29698828422884,39.82267854484064,483.29958358998107,582.0009174348017
1.7089462622270674E12,2.3152173913043477,-6.391304347826087,2.9891304347826084,13.533118788375711,26.302325284758247,39.83544407313396,483.3005932927839,581.9875749334783
1.708946262246599E12,2.293478260869565,-6.391304347826087,3.0652173913043477,13.535066072352658,26.304633176879072,39.83969924923173,483.2980690357768,581.9794251894266
1.7089462622661309E12,2.3260869565217392,-6.413043478260869,3.032608695652174,13.519920530309742,26.32691876017079,39.84683929048053,483.29684296808756,581.9806512571158
1.7089462622856628E12,2.3369565217391304,-6.456521739130435,3.043478260869565,13.53708547795838,26.32215873267159,39.85924421062997,483.2955447787696,581.9782712433662
1.7089462623051946E12,2.3152173913043477,-6.5,3.0760869565217392,13.525546017354253,26.336438815169195,39.86198483252345,483.2932368866488,581.9916858663184
1.7089462623247263E12,2.3043478260869565,-6.510869565217391,3.0652173913043477,13.52561813898303,26.326341787140585,39.85195992612361,483.29482356248184,581.9826706627215
1.7089462623442583E12,2.3043478260869565,-6.467391304347826,3.0869565217391304,13.515088381181764,26.327567854829773,39.842656236011535,483.29403022456535,581.9915416230609
1.70894626236379E12,2.293478260869565,-6.445652173913043,3.0652173913043477,13.512780489060939,26.32691876017079,39.83969924923173,483.2932368866488,581.9778385135935
1.7089462623833218E12,2.3152173913043477,-6.4021739130434785,3.0760869565217392,13.51068896182644,26.32439450316364,39.83508346499008,483.2913617243006,581.9727899995793
1.7089462624028535E12,2.3043478260869565,-6.423913043478261,3.0543478260869565,13.505640447812135,26.32641390876936,39.832054356581494,483.28890958892225,581.9760354728742
1.7089462624223855E12,2.3260869565217392,-6.445652173913043,3.108695652173913,13.497418582131695,26.324466624792414,39.82188520692411,483.2888374672935,581.9611784173463
1.7089462624419172E12,2.3260869565217392,-6.456521739130435,3.0760869565217392,13.495399176525972,26.32280782733057,39.81820700385654,483.28833261589205,581.949711078371
1.708946262461449E12,2.3369565217391304,-6.478260869565217,3.0652173913043477,13.492658554632492,26.323745408504656,39.81640396313715,483.2914338459294,581.9399025368575
1.7089462624809807E12,2.3043478260869565,-6.478260869565217,3.0543478260869565,13.49200945997351,26.323384800360778,39.81539426033429,483.2881162510057,581.9538220112112
1.7089462625005127E12,2.3152173913043477,-6.445652173913043,3.0543478260869565,13.485302148497361,26.327928462973652,39.81323061147101,483.28588048051364,581.9340606849266
1.7089462625200444E12,2.3043478260869565,-6.456521739130435,3.0652173913043477,13.486239729671446,26.377043292169965,39.86328302184141,483.28530350748343,581.9172563454218
1.7089462625395762E12,2.3369565217391304,-6.456521739130435,3.0652173913043477,13.505712569440911,26.419522931518905,39.925235500959815,483.2851592642259,581.9051399117875
1.708946262559108E12,2.3478260869565215,-6.413043478260869,3.0652173913043477,13.540619437768393,26.411012579323362,39.951632017091754,483.2829956153626,581.903697479212
1.70894626257864E12,2.3152173913043477,-6.445652173913043,3.0652173913043477,13.481119094028365,26.361969871755825,39.84308896578419,483.28465441282447,581.9334115902676
1.7089462625981716E12,2.3043478260869565,-6.445652173913043,3.043478260869565,13.468930538765257,26.306291974340915,39.77522251310617,483.2844380479381,581.9357916040173
1.7089462626177034E12,2.3152173913043477,-6.456521739130435,3.0217391304347827,13.465901430356674,26.306003487825812,39.771904918182486,483.28530350748343,581.936512820305
1.708946262637235E12,2.3152173913043477,-6.467391304347826,3.043478260869565,13.459410483766852,26.31754294842994,39.77695343219679,483.2851592642259,581.9339885632978
1.708946262656767E12,2.293478260869565,-6.467391304347826,3.0543478260869565,13.46698325478831,26.30686894737112,39.77385220215943,483.2822743990749,581.9380273745093
1.7089462626762988E12,2.282608695652174,-6.456521739130435,3.0760869565217392,13.441884927974336,26.35144011395456,39.793325041928895,483.28335622350653,581.9409843612891
1.7089462626958306E12,2.3152173913043477,-6.478260869565217,3.0652173913043477,13.613390161203165,26.767581911990874,40.38097207319404,483.2803992367267,581.7727246013552
1.7089462627153625E12,2.3369565217391304,-6.478260869565217,3.043478260869565,13.863363726540056,27.483389077590594,41.34675280413065,483.2809762097569,581.347856086237
1.7089462627348943E12,2.3152173913043477,-6.445652173913043,2.934782608695652,13.5298733150808,26.183468840535745,39.713342155616544,483.2809762097569,581.9673808774211
1.708946262754426E12,2.282608695652174,-6.413043478260869,3.184782608695652,13.504342258494171,26.37646631913976,39.88080857763393,483.27643254714405,581.9383158610244
1.7089462627739578E12,2.25,-6.445652173913043,3.0,13.497707068646799,26.35915712823357,39.856864196880366,483.2744852631671,581.9536056463248
1.7089462627934897E12,2.3043478260869565,-6.445652173913043,3.0543478260869565,13.497274338874144,26.36514322342196,39.8624175622961,483.27542284434116,581.9545432274989
1.7089462628130215E12,2.3260869565217392,-6.413043478260869,3.0652173913043477,13.498572528192108,26.374446913534037,39.87301944172614,483.27484587131096,581.9593753766269
1.7089462628325532E12,2.282608695652174,-6.413043478260869,3.119565217391304,13.50917440762215,26.384543941562647,39.893718349184795,483.273547681993,581.9578608224226
1.708946262852085E12,2.282608695652174,-6.478260869565217,3.119565217391304,13.534921829095106,26.390385793493486,39.92530762258859,483.26972523566786,581.9692560397692
1.708946262871617E12,2.2717391304347827,-6.489130434782608,3.119565217391304,13.543360059661874,26.41050772792193,39.9538677875838,483.26885977612255,581.973511215867
1.7089462628911487E12,2.3369565217391304,-6.478260869565217,3.141304347826087,13.594494294463908,26.423489621101574,40.01798391556548,483.2640276269946,581.9970949884766
1.7089462629106804E12,2.3478260869565215,-6.434782608695652,3.119565217391304,13.624713256920966,26.446640663938606,40.07135392085957,483.25991669415436,582.0023598673773
1.7089462629302122E12,2.3152173913043477,-6.413043478260869,3.108695652173913,13.679669938048118,26.47931176177404,40.15898169982216,483.25753668040477,582.0070477732477
1.7089462629497441E12,2.282608695652174,-6.4021739130434785,3.141304347826087,13.690848790508365,26.515228332904382,40.20607712341275,483.25609424782925,581.9718524184051
1.708946262969276E12,2.293478260869565,-6.413043478260869,3.108695652173913,13.638993339418573,26.553524917784326,40.1925182572029,483.2533536259358,581.9357916040173
1.7089462629888076E12,2.3043478260869565,-6.4021739130434785,3.108695652173913,13.532181207201626,26.509602845859867,40.04178405306149,483.25407484222353,581.8961247081905
1.7089462630083396E12,2.3152173913043477,-6.413043478260869,3.1304347826086953,13.489557324595133,26.462363179011724,39.95192050360686,483.25284877453436,581.8880470857677
1.7089462630278713E12,2.3152173913043477,-6.456521739130435,3.2065217391304346,13.463809903122176,26.437336973826525,39.9011468769487,483.2511899770725,581.8774452063376
1.708946263047403E12,2.3152173913043477,-6.478260869565217,3.217391304347826,13.453135902063359,26.447145515340033,39.90028141740339,483.24844935517905,581.8765076251635
1.7089462630669348E12,2.3152173913043477,-6.456521739130435,3.184782608695652,13.444914036382919,26.455151016134145,39.900065052517064,483.2482329902927,581.8890567885705
1.7089462630864668E12,2.293478260869565,-6.467391304347826,3.1956521739130435,13.44592373918578,26.45132856980903,39.89725230899481,483.24787238214884,581.8858834369044
1.7089462631059985E12,2.3152173913043477,-6.413043478260869,3.141304347826087,13.447943144791502,26.462002570867845,39.90994571565935,483.249098449838,581.8842246394426
1.7089462631255303E12,2.3260869565217392,-6.391304347826087,3.152173913043478,13.441235833315353,26.478157815713622,39.919393649028976,483.2479445037776,581.8746324628154
1.708946263145062E12,2.293478260869565,-6.391304347826087,3.141304347826087,13.441740684716784,26.488182722113457,39.92992340683024,483.24837723355023,581.8699445569449
1.708946263164594E12,2.3260869565217392,-6.413043478260869,3.1956521739130435,13.436547927444927,26.494096695673072,39.930644623118,483.246213584687,581.8722524490657
1.7089462631841257E12,2.3369565217391304,-6.445652173913043,3.2391304347826084,13.436620049073703,26.498712479914722,39.935332528988425,483.2445547872251,581.8599917721739
1.7089462632036575E12,2.3369565217391304,-6.489130434782608,3.25,13.427172115704074,26.50340038578515,39.93057250148922,483.2431123546496,581.8625881508099
1.7089462632231892E12,2.3152173913043477,-6.467391304347826,3.25,13.435898832785945,26.496620952680225,39.93251978546617,483.2434729627935,581.860280258689
1.7089462632427212E12,2.3152173913043477,-6.434782608695652,3.260869565217391,13.434528521839205,26.494385182188175,39.92891370402738,483.2410929490439,581.8611457182343
1.708946263262253E12,2.3043478260869565,-6.4021739130434785,3.2282608695652173,13.428181818506935,26.493736087529193,39.92191790603613,483.2425353816194,581.8583329747121
1.7089462632817847E12,2.358695652173913,-6.413043478260869,3.2065217391304346,13.42897515642347,26.490995465635713,39.91997062205918,483.24260750324817,581.8482359466834
1.7089462633013167E12,2.3369565217391304,-6.423913043478261,3.282608695652174,13.428903034794693,26.4853699785912,39.914273013385895,483.24484327374023,581.8417450000936
1.7089462633208484E12,2.3260869565217392,-6.413043478260869,3.293478260869565,13.426450899416317,26.490130006090403,39.91658090550672,483.24361720605106,581.8369849725945
1.7089462633403801E12,2.3369565217391304,-6.380434782608695,3.293478260869565,13.435321859755739,26.48948091143142,39.92480277118716,483.23907354343817,581.835831026534
1.7089462633599119E12,2.3152173913043477,-6.434782608695652,3.2717391304347827,13.422412088204872,26.492798506355108,39.91521059455998,483.2416699220741,581.8415286352073
1.7089462633794438E12,2.3260869565217392,-6.445652173913043,3.25,13.436187319301048,26.48674028953794,39.92292760883899,483.24001112461224,581.8377061888822
1.7089462633989756E12,2.3152173913043477,-6.445652173913043,3.282608695652174,13.433663062293896,26.49294274961266,39.926605811906555,483.24188628696044,581.8211182142637
1.7089462634185073E12,2.3260869565217392,-6.413043478260869,3.2717391304347827,13.436980657217582,26.495611249877363,39.932591907094945,483.23892930018064,581.8225606468393
1.708946263438039E12,2.3369565217391304,-6.423913043478261,3.3260869565217392,13.44094734680025,26.501236736921875,39.942184083722125,483.2435450844223,581.81780061934
1.708946263457571E12,2.3369565217391304,-6.423913043478261,3.3152173913043477,13.441380076572905,26.50527554813332,39.946655624706224,483.24289598976327,581.8186660788854
1.7089462634771028E12,2.3369565217391304,-6.413043478260869,3.3152173913043477,13.452198320889273,26.576459595735024,40.0286579166243,483.2432565979072,581.8156369704768
1.7089462634966345E12,2.3152173913043477,-6.423913043478261,3.3152173913043477,13.477296647703248,26.592831205467135,40.07012785317038,483.24037173275616,581.7879422650269
1.7089462635161663E12,2.3369565217391304,-6.413043478260869,3.3260869565217392,13.479171810051419,26.563044972782727,40.042216782834146,483.2399390029835,581.7913319815793
1.7089462635356982E12,2.3369565217391304,-6.423913043478261,3.3152173913043477,13.444264941723937,26.50527554813332,39.949540489857256,483.24058809764244,581.8097229969171
1.70894626355523E12,2.3369565217391304,-6.445652173913043,3.293478260869565,13.439432792595959,26.46827715257134,39.9077099451673,483.23921778669575,581.8260224850205
1.7089462635747617E12,2.3478260869565215,-6.434782608695652,3.3152173913043477,13.433663062293896,26.470873531207268,39.90453659350116,483.23979475972595,581.8255897552478
1.7089462635942937E12,2.3152173913043477,-6.391304347826087,3.3260869565217392,13.44008188725494,26.472604450297887,39.91268633755283,483.23979475972595,581.8259503633917
1.7089462636138254E12,2.3152173913043477,-6.445652173913043,3.3043478260869565,13.438927941194528,26.485442100219977,39.924370041414505,483.23864081366554,581.8272485527096
1.7089462636333572E12,2.3043478260869565,-6.423913043478261,3.3043478260869565,13.44008188725494,26.585546920960773,40.025628808215714,483.23878505692306,581.826166728278
1.708946263652889E12,2.3369565217391304,-6.423913043478261,3.3369565217391304,13.973709818567016,27.661673743924354,41.63538356249137,483.23806384063533,581.2321008720519
1.708946263672421E12,2.358695652173913,-6.413043478260869,3.3152173913043477,13.756046742921681,27.148672598442147,40.90471934136383,483.2415256788166,581.461087043415
1.7089462636919526E12,2.3260869565217392,-6.4021739130434785,3.3043478260869565,13.486816702701653,26.497774898740637,39.98459160144229,483.24260750324817,581.8563856907351
1.7089462637114844E12,2.3152173913043477,-6.4021739130434785,3.4456521739130435,13.489845811110236,26.5217192794942,40.011565090604435,483.2429681113921,581.8504717171755
1.708946263731016E12,2.293478260869565,-6.413043478260869,3.3043478260869565,13.486239729671446,26.51522833290438,40.001468062575825,483.2422468951043,581.8452068382749
1.708946263750548E12,2.3478260869565215,-6.413043478260869,3.293478260869565,13.486744581072877,26.520637455062563,40.00738203613544,483.2390014218094,581.8485244331986
1.7089462637700798E12,2.3369565217391304,-6.391304347826087,3.282608695652174,13.500736177055382,26.518906535971944,40.019642713027324,483.23719838109,581.8507602036906
1.7089462637896116E12,2.293478260869565,-6.423913043478261,3.391304347826087,13.516963543529934,26.53318661846955,40.05015016199948,483.2366935296886,581.8511929334633
1.7089462638091433E12,2.282608695652174,-6.456521739130435,3.3478260869565215,13.53398424792102,26.54494244396001,40.07892669188103,483.23791959737775,581.8445577436158
1.7089462638286753E12,2.3152173913043477,-6.478260869565217,3.3260869565217392,13.57321841397505,26.55229885009514,40.12551726407019,483.2337365429088,581.8707378948615
1.708946263848207E12,2.358695652173913,-6.456521739130435,3.369565217391304,13.60423071434864,26.5691031895999,40.17333390394854,483.23294320499224,581.8813397742915
1.7089462638677388E12,2.369565217391304,-6.391304347826087,3.358695652173913,13.651975232598215,26.580282042060144,40.23225727465836,483.2324383535908,581.8921580186079
1.7089462638872708E12,2.3152173913043477,-6.380434782608695,3.3260869565217392,13.697772466870841,26.604731274215137,40.30250374108598,483.23077955612894,581.8997307896293
1.7089462639068025E12,2.3152173913043477,-6.4021739130434785,3.3369565217391304,13.705561602778626,26.640719966974256,40.34628156975288,483.2289043937808,581.8555202311898
1.7089462639263342E12,2.3260869565217392,-6.4021739130434785,3.3478260869565215,13.606682849727017,26.66625102356089,40.272933873287904,483.22955348843976,581.7951544279044
1.708946263945866E12,2.3369565217391304,-6.423913043478261,3.4130434782608696,13.54170126220003,26.619516208114177,40.161217470314206,483.23308744824976,581.7722197499537
1.708946263965398E12,2.3478260869565215,-6.434782608695652,3.369565217391304,13.493307649291474,26.57869536622708,40.072003015518554,483.23409715105265,581.7749603718472
1.7089462639849297E12,2.3260869565217392,-6.467391304347826,3.4239130434782608,13.489485202966357,26.56275648626763,40.05224168923399,483.23352017802245,581.7713542904085
1.7089462640044614E12,2.3152173913043477,-6.5,3.3478260869565215,13.490567027397994,26.558934039942507,40.0495010673405,483.23135652915914,581.7678924522272
1.7089462640239932E12,2.3260869565217392,-6.478260869565217,3.3043478260869565,13.491576730200855,26.56686741910785,40.058444149308706,483.2338807861663,581.7762585611652
1.7089462640435251E12,2.3478260869565215,-6.413043478260869,3.3152173913043477,13.494966446753317,26.573502608955224,40.06846905570854,483.2356838268857,581.7684694252574
1.708946264063057E12,2.3260869565217392,-6.391304347826087,3.3260869565217392,13.495543419783523,26.58778269145283,40.08332611123635,483.2362607999159,581.7737343041581
1.7089462640825886E12,2.3152173913043477,-6.391304347826087,3.3260869565217392,13.491432486943303,26.58929724565712,40.080729732600425,483.2382802055216,581.7711379255221
1.7089462641021204E12,2.3043478260869565,-6.4021739130434785,3.293478260869565,13.4911440004282,26.606750679820863,40.09789468024906,483.23849657040796,581.7787828181723
1.7089462641216523E12,2.3043478260869565,-6.467391304347826,3.3043478260869565,13.502755582661104,26.60249550372309,40.10525108638419,483.2399390029835,581.7681809387423
1.708946264141184E12,2.3043478260869565,-6.489130434782608,3.282608695652174,13.503548920577638,26.60271186860942,40.106260789187054,483.2429681113921,581.7676760873409
1.7089462641607158E12,2.3260869565217392,-6.456521739130435,3.3152173913043477,13.499365866108642,26.6033609632684,40.10272682937704,483.2444105439676,581.7639978842733
1.7089462641802478E12,2.293478260869565,-6.456521739130435,3.3152173913043477,13.500808298684158,26.582085082779543,40.0828933814637,483.24484327374023,581.7663057763941
1.7089462641997795E12,2.3152173913043477,-6.423913043478261,3.260869565217391,13.498644649820884,26.591316651262844,40.089961301083726,483.2475117740049,581.7688300334013
1.7089462642193113E12,2.3043478260869565,-6.4021739130434785,3.25,13.50881379947827,26.57696444713646,40.08577824661473,483.2469348009747,581.76536819522
1.708946264238843E12,2.3260869565217392,-6.380434782608695,3.2391304347826084,13.513213218833593,26.572060176379708,40.0852733952133,483.25054088241353,581.7731573311279
1.708946264258375E12,2.3260869565217392,-6.4021739130434785,3.25,13.507515610160306,26.58742208330895,40.094937693469255,483.25342574756456,581.7694070064315
1.7089462642779067E12,2.3260869565217392,-6.445652173913043,3.2282608695652173,13.505928934327239,26.578406879711977,40.084335814039214,483.2535699908221,581.7715706552948
1.7089462642974385E12,2.3152173913043477,-6.423913043478261,3.217391304347826,13.51840597610545,26.57682020387891,40.09522617998436,483.25681546411704,581.7652960735912
1.7089462643169702E12,2.3152173913043477,-6.456521739130435,3.217391304347826,13.519127192393208,26.57422382524298,40.09335101763619,483.25609424782925,581.7634209112431
1.7089462643365022E12,2.3152173913043477,-6.445652173913043,3.2391304347826084,13.520497503339948,26.572492906152362,40.09299040949231,483.2611427618436,581.7619063570388
1.708946264356034E12,2.3152173913043477,-6.456521739130435,3.184782608695652,13.520713868226276,26.578839609484632,40.099553477710906,483.26063791044214,581.7606081677209
1.7089462643755657E12,2.3043478260869565,-6.434782608695652,3.1630434782608696,13.516891421901159,26.58590752910466,40.102798951005816,483.2659749109715,581.7596705865468
1.7089462643950974E12,2.3043478260869565,-6.434782608695652,3.152173913043478,13.529224220421819,26.569319554486228,40.098543774908045,483.26828280309235,581.7601754379482
1.7089462644146294E12,2.3260869565217392,-6.4021739130434785,3.184782608695652,13.527060571558545,26.582878420696076,40.10993899225462,483.2666961272593,581.7634930328719
1.7089462644341611E12,2.3043478260869565,-6.434782608695652,3.1630434782608696,13.518189611219123,26.587999056339157,40.10618866755828,483.26929250589524,581.7599590730619
1.7089462644536929E12,2.3260869565217392,-6.423913043478261,3.1304347826086953,13.51891082750688,26.592831205467135,40.111742032974014,483.26885977612255,581.7709936822646
1.7089462644732246E12,2.3152173913043477,-6.423913043478261,3.141304347826087,13.522372665688119,26.58655662376364,40.10892928945176,483.2697973572967,581.7665942629093
1.7089462644927566E12,2.3043478260869565,-6.434782608695652,3.152173913043478,13.509535015766028,26.592542718952032,40.10207773471806,483.2721052494175,581.7681088171136
1.7089462645122883E12,2.3043478260869565,-6.445652173913043,3.1739130434782608,13.519199314021984,26.6465618189051,40.16576113292708,483.27282646570524,581.7580117890849
1.70894626453182E12,2.3152173913043477,-6.434782608695652,3.152173913043478,13.533407274890815,26.6468503054202,40.180257580311014,483.2734755603642,581.7577954241985
1.708946264551352E12,2.3260869565217392,-6.467391304347826,3.1630434782608696,13.58144027965549,26.651538211290628,40.23297849094612,483.27224949267503,581.7551990455627
1.7089462645708838E12,2.3260869565217392,-6.434782608695652,3.1739130434782608,13.542927329889219,26.6239156274695,40.16684295735872,483.27484587131096,581.7486359773441
1.7089462645904155E12,2.3260869565217392,-6.434782608695652,3.119565217391304,13.500447690540279,26.54811579562614,40.048563486166415,483.27823558786343,581.775681588135
1.7089462646099473E12,2.3260869565217392,-6.445652173913043,3.0978260869565215,13.515521110954419,26.54530305210389,40.06082416305831,483.28176954767343,581.7640700059021
1.7089462646294792E12,2.3152173913043477,-6.423913043478261,3.1304347826086953,13.50643378572867,26.53506178081772,40.04149556654639,483.2830677369914,581.7707051957494
1.708946264649011E12,2.3260869565217392,-6.423913043478261,3.1304347826086953,13.503188312433759,26.54905337680023,40.05224168923399,483.28451016956694,581.7583723972288
1.7089462646685427E12,2.3260869565217392,-6.467391304347826,3.108695652173913,13.496192514442507,26.557563728995774,40.05375624343828,483.2860247237712,581.7639257626446
1.7089462646880745E12,2.3369565217391304,-6.434782608695652,3.0869565217391304,13.754604310346165,26.978898284303938,40.733502594650105,483.284149561423,581.6287698303187
1.7089462647076064E12,2.358695652173913,-6.434782608695652,3.0978260869565215,14.018930079809438,27.828130463138876,41.84706054294831,483.28335622350653,581.1500264585051
1.7089462647271382E12,2.3152173913043477,-6.445652173913043,3.0217391304347827,13.59377307817615,26.346247356682703,39.94002043485885,483.2902077782402,581.8409516621771
1.70894626474667E12,2.3043478260869565,-6.413043478260869,3.1630434782608696,13.575021454694445,26.528642955856682,40.103664410551126,483.28963080521,581.8051072126755
1.7089462647662017E12,2.293478260869565,-6.423913043478261,2.9456521739130435,13.565429278067265,26.5711947168344,40.13662399490166,483.290279899869,581.7887356029435
1.7089462647857336E12,2.3152173913043477,-6.391304347826087,3.0543478260869565,13.577834198216701,26.570617743804192,40.14845194202089,483.2904962647553,581.767603965712
1.7089462648052654E12,2.358695652173913,-6.391304347826087,3.152173913043478,13.57220871117219,26.59362454338367,40.16583325455586,483.2933811299063,581.7752488583624
1.708946264824797E12,2.369565217391304,-6.456521739130435,3.1630434782608696,13.597307037986164,26.600548219746145,40.19785525773231,483.29287627850493,581.7686857901438
1.708946264844329E12,2.3043478260869565,-6.543478260869565,3.0543478260869565,13.610144687908255,26.605524612131674,40.21566930003993,483.29330900827756,581.7758979530213
1.7089462648638608E12,2.293478260869565,-6.510869565217391,3.0652173913043477,13.654138881461488,26.60877008542658,40.26290896688807,483.2916502108157,581.7916925897232
1.7089462648833926E12,2.3478260869565215,-6.478260869565217,3.0760869565217392,13.673034748200745,26.61720831599335,40.290243064194094,483.2890538321798,581.8342443507009
1.7089462649029243E12,2.391304347826087,-6.4021739130434785,3.0869565217391304,13.736213295008337,26.649158197541023,40.38537149254936,483.2904962647553,581.851914149751
1.7089462649224563E12,2.3478260869565215,-6.4021739130434785,3.0978260869565215,13.771120163335821,26.651970941063276,40.4230911043991,483.2919386973308,581.8472262438805
1.708946264941988E12,2.3152173913043477,-6.423913043478261,3.0543478260869565,13.801267004164101,26.657668549736563,40.458935553900666,483.2914338459294,581.8433316759267
1.7089462649615198E12,2.3260869565217392,-6.423913043478261,3.0652173913043477,13.748401850271447,26.726111975444788,40.47451382571624,483.29641023831493,581.787581656883
1.7089462649810515E12,2.3478260869565215,-6.445652173913043,3.108695652173913,13.679381451533015,26.714067663439234,40.39344911497225,483.29785267089045,581.7492129503743
1.7089462650005835E12,2.3369565217391304,-6.456521739130435,3.0869565217391304,13.592114280714307,26.65204306269206,40.244157343406364,483.298646008807,581.7416401793528
1.7089462650201152E12,2.358695652173913,-6.478260869565217,3.0760869565217392,13.579853603822423,26.62427623561338,40.2041298394358,483.2985738871782,581.7356540841645
1.708946265039647E12,2.3369565217391304,-6.489130434782608,3.0978260869565215,13.55764014215948,26.620093181144384,40.17773332330386,483.2980690357768,581.7480590043139
1.7089462650591787E12,2.3478260869565215,-6.456521739130435,3.0543478260869565,13.560741372196839,26.616991951107025,40.17773332330386,483.29900661695086,581.7391880439744
1.7089462650787107E12,2.293478260869565,-6.434782608695652,3.0760869565217392,13.556197709583964,26.61367435618334,40.1698720657673,483.29900661695086,581.7356540841645
1.7089462650982424E12,2.3369565217391304,-6.391304347826087,3.010869565217391,13.54941827647904,26.632714466180147,40.182132742659185,483.3009539009278,581.7391159223457
1.7089462651177742E12,2.3152173913043477,-6.369565217391304,3.0652173913043477,13.550500100910677,26.62737746565074,40.17787756656141,483.2982854006631,581.7398371386334
1.7089462651373062E12,2.3478260869565215,-6.380434782608695,3.0869565217391304,13.547615235759645,26.63660903413404,40.18422426989368,483.3003048062688,581.7459674770794
1.708946265156838E12,2.3152173913043477,-6.434782608695652,3.0543478260869565,13.554322547235794,26.636392669247712,40.190715216483504,483.3009539009278,581.7362310571947
1.7089462651763696E12,2.3260869565217392,-6.521739130434782,3.032608695652174,13.554755277008448,26.651898819434507,40.20665409644295,483.298646008807,581.733851043445
1.7089462651959014E12,2.3152173913043477,-6.445652173913043,3.032608695652174,13.561101980340718,26.647138791935305,40.20824077227602,483.2982854006631,581.729018894317
1.7089462652154333E12,2.3152173913043477,-6.423913043478261,3.0543478260869565,13.558794088219893,26.65319700875247,40.21199109697236,483.29655448157246,581.7202921772351
1.708946265234965E12,2.282608695652174,-6.4021739130434785,3.032608695652174,13.54631704644168,26.636176304361385,40.182493350803064,483.2941023461941,581.7148109334482
1.7089462652544968E12,2.293478260869565,-6.4021739130434785,2.9891304347826084,13.54206187034391,26.637907223452004,40.17996909379591,483.2963381166862,581.7067333110253
1.7089462652740286E12,2.3152173913043477,-6.4021739130434785,3.010869565217391,13.532397572087953,26.621968343492554,40.154365915580506,483.29698721134514,581.7068054326542
1.7089462652935605E12,2.3369565217391304,-6.4021739130434785,3.0652173913043477,13.53109938276999,26.63538296644485,40.16648234921484,483.2964823599437,581.706228459624
1.7089462653130923E12,2.3260869565217392,-6.423913043478261,3.0543478260869565,13.515881719098298,26.639061169512416,40.15494288861071,483.30297330653354,581.7196430825762
1.708946265332624E12,2.3260869565217392,-6.456521739130435,3.0760869565217392,13.515809597469522,26.639277534398744,40.155087131868264,483.2993672250947,581.7096902978052
1.7089462653521558E12,2.3260869565217392,-6.467391304347826,3.0652173913043477,13.51328534046237,26.642018156292224,40.15530349675459,483.2985017655494,581.7051466351922
1.7089462653716877E12,2.3260869565217392,-6.467391304347826,3.0652173913043477,13.509246529250925,26.63574357458873,40.14499010383965,483.2976363060041,581.7112048520095
1.7089462653912195E12,2.3152173913043477,-6.445652173913043,3.0760869565217392,13.509895623909907,26.644037561897946,40.15393318580785,483.2952562922545,581.6897126066342
1.7089462654107512E12,2.3369565217391304,-6.434782608695652,3.0543478260869565,13.515304746068091,26.640503602087932,40.15580834815602,483.29374173805024,581.6777404162575
1.7089462654302832E12,2.3152173913043477,-6.423913043478261,3.0543478260869565,13.511193813227871,26.685146890300146,40.196340703528016,483.29698721134514,581.6684367261454
1.708946265449815E12,2.282608695652174,-6.423913043478261,3.0652173913043477,13.533912126292245,26.728636232451947,40.26254835874419,483.2926599136186,581.6615130497829
1.7089462654693467E12,2.293478260869565,-6.423913043478261,3.0760869565217392,13.562832899431337,26.719621028854974,40.28245392828631,483.29157808918694,581.6569693871701
1.7089462654888784E12,2.3152173913043477,-6.434782608695652,3.0978260869565215,13.50196224474457,26.655577022502072,40.15753926724664,483.2913617243006,581.6775961729999
1.7089462655084104E12,2.282608695652174,-6.434782608695652,3.0543478260869565,13.478955445165091,26.623122289552967,40.10207773471806,483.29071262964163,581.6889913903465
1.7089462655279421E12,2.3043478260869565,-6.423913043478261,3.032608695652174,13.48378759429307,26.612664653380477,40.09645224767355,483.2866016968014,581.689135633604
1.7089462655474739E12,2.3369565217391304,-6.391304347826087,3.0869565217391304,13.48789852713329,26.61756892413723,40.10546745127052,483.2851592642259,581.6810580111811
1.7089462655670056E12,2.3260869565217392,-6.456521739130435,3.108695652173913,13.475782093498957,26.622689559780312,40.09847165327927,483.2872507914604,581.6690858208044
1.7089462655865376E12,2.3478260869565215,-6.478260869565217,3.0869565217391304,13.444769793125367,26.666178901932113,40.11094869505748,483.2828513721051,581.6998096346629
1.7089462656060693E12,2.358695652173913,-6.467391304347826,3.0652173913043477,13.681112370623634,27.111890567766498,40.79300293839013,483.2822743990749,581.5513833226423
1.708946265625601E12,2.358695652173913,-6.445652173913043,3.0543478260869565,13.760157675761901,27.667371352597634,41.42752902835954,483.2840053181655,581.2116904511083
1.7089462656451328E12,2.358695652173913,-6.423913043478261,3.0,13.515521110954419,26.45969467874702,39.97521578970144,483.2822743990749,581.7719312634387
1.7089462656646648E12,2.293478260869565,-6.380434782608695,3.184782608695652,13.497057973987816,26.63797934508078,40.135037319068594,483.28140893952957,581.7311104215515
1.7089462656841965E12,2.293478260869565,-6.456521739130435,2.967391304347826,13.502683461032328,26.675194105529087,40.17787756656141,483.2801828718404,581.7073824056844
1.7089462657037283E12,2.3369565217391304,-6.456521739130435,3.0217391304347827,13.503404677320086,26.67908867348298,40.182493350803064,483.2803271150979,581.7076708921994
1.7089462657232603E12,2.391304347826087,-6.434782608695652,3.043478260869565,13.50282770428988,26.69380148575324,40.19662919004312,483.2774422499469,581.7156042713648
1.708946265742792E12,2.3478260869565215,-6.467391304347826,3.108695652173913,13.515737475840746,26.696253621131618,40.21199109697236,483.27282646570524,581.7101951492066
1.7089462657623237E12,2.3043478260869565,-6.510869565217391,3.0543478260869565,13.529007855535491,26.721784677718247,40.25079253325374,483.27102342498586,581.7226721909848
1.7089462657818555E12,2.3043478260869565,-6.521739130434782,3.032608695652174,13.567160197157884,26.712192501091067,40.27935269824895,483.26770583006214,581.7149551767058
1.7089462658013875E12,2.358695652173913,-6.478260869565217,3.043478260869565,13.603293133174555,26.74197873377547,40.34527186695002,483.26518157305503,581.735798327422
1.7089462658209192E12,2.369565217391304,-6.445652173913043,3.0543478260869565,13.648224907901874,26.74291631494955,40.391141222851424,483.2630900458205,581.7374571248838
1.708946265840451E12,2.3369565217391304,-6.4021739130434785,3.0760869565217392,13.683780870888338,26.752436369947954,40.43621724083629,483.2601330590407,581.738683192573
1.7089462658599827E12,2.282608695652174,-6.445652173913043,3.0760869565217392,13.6871705874408,26.801983928916922,40.48915451635772,483.25760880203353,581.7248358398481
1.7089462658795146E12,2.293478260869565,-6.434782608695652,3.0652173913043477,13.63560362286611,26.839631419137884,40.475235042003995,483.25760880203353,581.66050334698
1.7089462658990464E12,2.3043478260869565,-6.423913043478261,3.043478260869565,13.519415678908311,26.826361039443142,40.34577671835145,483.25609424782925,581.628986195205
1.7089462659185781E12,2.358695652173913,-6.445652173913043,3.0760869565217392,13.472897228347925,26.78496322452584,40.257860452873764,483.2568875857458,581.628986195205
1.7089462659381099E12,2.3369565217391304,-6.456521739130435,3.119565217391304,13.44282250914842,26.76801464176353,40.21083715091195,483.2548681801401,581.6323037901287
1.7089462659576418E12,2.3152173913043477,-6.478260869565217,3.108695652173913,13.434528521839205,26.76830312827863,40.20283165011784,483.2536421124509,581.619033410434
1.7089462659771736E12,2.282608695652174,-6.5,3.0543478260869565,13.440298252141268,26.757484883962263,40.19778313610353,483.25407484222353,581.619321896949
1.7089462659967053E12,2.293478260869565,-6.445652173913043,3.0978260869565215,13.426595142673868,26.77638075070152,40.20297589337539,483.2524881663905,581.6230722216454
1.7089462660162373E12,2.293478260869565,-6.456521739130435,3.0217391304347827,13.429191521309797,26.783448670321548,40.212640191631344,483.25284877453436,581.6329528847878
1.708946266035769E12,2.293478260869565,-6.391304347826087,3.108695652173913,13.424359372181819,26.80364272637877,40.22800209856059,483.25212755824657,581.6266061814555
1.7089462660553008E12,2.3043478260869565,-6.4021739130434785,3.119565217391304,13.433158210892465,26.799026942137118,40.23218515302958,483.25198331498905,581.6182400725174
1.7089462660748325E12,2.3043478260869565,-6.456521739130435,3.141304347826087,13.430417588998985,26.807176686188782,40.23759427518777,483.2476560172625,581.6184564374038
1.7089462660943645E12,2.3043478260869565,-6.478260869565217,3.1304347826086953,13.42911939968102,26.807825780847764,40.236945180528785,483.24989178775456,581.6150667208514
1.7089462661138962E12,2.3369565217391304,-6.478260869565217,3.141304347826087,13.435177616498187,26.805085158954284,40.24026277545247,483.2463578279445,581.6030945304746
1.708946266133428E12,2.3152173913043477,-6.478260869565217,3.1304347826086953,13.432653359491034,26.806455469901024,40.23910882939206,483.2456366116568,581.5970363136573
1.7089462661529597E12,2.282608695652174,-6.434782608695652,3.119565217391304,13.427172115704074,26.808330632249195,40.23550274795327,483.2454923683992,581.5933581105897
1.7089462661724917E12,2.293478260869565,-6.413043478260869,3.108695652173913,13.4157768983575,26.810927010885123,40.22670390924262,483.2438335709374,581.5991999625206
1.7089462661920234E12,2.293478260869565,-6.4021739130434785,3.119565217391304,13.416137506501379,26.80840275387797,40.22454026037935,483.2452760035129,581.592348407787
1.7089462662115552E12,2.293478260869565,-6.434782608695652,3.141304347826087,13.412747789948916,26.807176686188782,40.2199244761377,483.2431123546496,581.5948726647941
1.708946266231087E12,2.3043478260869565,-6.456521739130435,3.119565217391304,13.417940547220773,26.804508185924078,40.22244873314485,483.2438335709374,581.5827562311598
1.708946266250619E12,2.3043478260869565,-6.445652173913043,3.108695652173913,13.41354112786545,26.805373645469388,40.21891477333484,483.24174204370286,581.5802319741526
1.7089462662701506E12,2.3152173913043477,-6.456521739130435,3.1304347826086953,13.415921141615051,26.804075456151423,40.219996597766475,483.24217477347554,581.5808089471828
1.7089462662896824E12,2.3152173913043477,-6.445652173913043,3.141304347826087,13.408348370593593,26.804003334522648,40.21235170511624,483.2421026518468,581.5571530529444
1.708946266309214E12,2.3152173913043477,-6.434782608695652,3.108695652173913,13.401136207716014,26.81662461955841,40.217760827274425,483.24116507067265,581.5656634051398
1.708946266328746E12,2.293478260869565,-6.413043478260869,3.141304347826087,13.40120832934479,26.820158579368425,40.221366908713215,483.24390569256616,581.5556384987401
1.7089462663482778E12,2.3152173913043477,-6.423913043478261,3.1630434782608696,13.407771397563387,26.83941505425156,40.24718645181495,483.24203053021796,581.5529699984753
1.7089462663678096E12,2.3152173913043477,-6.445652173913043,3.1739130434782608,13.409646559911558,26.89920388450669,40.30885044441825,483.24145355718775,581.5417911460152
1.7089462663873416E12,2.3043478260869565,-6.423913043478261,3.1630434782608696,13.436475805816151,26.930504671395383,40.366980477211534,483.23878505692306,581.5239049820788
1.7089462664068733E12,2.3260869565217392,-6.445652173913043,3.184782608695652,13.442534022633318,26.902160871286497,40.344694893919815,483.23907354343817,581.531549874729
1.708946266426405E12,2.3152173913043477,-6.456521739130435,3.1956521739130435,13.406401086616647,26.84799752807588,40.254398614692526,483.2396505164684,581.5448202544237
1.7089462664459368E12,2.282608695652174,-6.423913043478261,3.1630434782608696,13.389019774081682,26.79606995535731,40.18508972943899,483.2384244487792,581.5501572549531
1.7089462664654688E12,2.3260869565217392,-6.423913043478261,3.1739130434782608,13.38014881374226,26.805373645469388,40.18552245921165,483.23791959737775,581.5544124310509
1.7089462664850005E12,2.3152173913043477,-6.413043478260869,3.1956521739130435,13.391399787831283,26.808330632249195,40.19973042008048,483.2407323409,581.5428729704468
1.7089462665045322E12,2.3369565217391304,-6.434782608695652,3.1739130434782608,13.380220935371035,26.8202307009972,40.200451636368236,483.2396505164684,581.5390505241216
1.708946266524064E12,2.3260869565217392,-6.445652173913043,3.2065217391304346,13.414839317183414,27.013588787745093,40.42842810492851,483.2382802055216,581.5090479265509
1.708946266543596E12,2.3369565217391304,-6.423913043478261,3.217391304347826,13.80934462658699,27.79156479734955,41.60090942393654,483.23806384063533,581.0872806414701
1.7089462665631277E12,2.358695652173913,-6.456521739130435,3.1630434782608696,13.794848179203056,27.856402141618986,41.651250320822044,483.2398668813547,580.9883297667897
1.7089462665826594E12,2.3369565217391304,-6.423913043478261,3.1630434782608696,13.4363315625586,26.773063155777834,40.20939471833643,483.23676565131734,581.5789337848346
1.7089462666021912E12,2.282608695652174,-6.434782608695652,3.293478260869565,13.429191521309797,26.873889192806388,40.303080714116184,483.23647716480224,581.5542681877934
1.7089462666217231E12,2.3152173913043477,-6.467391304347826,3.184782608695652,13.432364872975931,26.852685433946306,40.28505030692224,483.23806384063533,581.5661682565413
1.708946266641255E12,2.3478260869565215,-6.413043478260869,3.184782608695652,13.440803103542699,26.860258204967764,40.30106130851046,483.23719838109,581.55917245855
1.7089462666607866E12,2.3369565217391304,-6.4021739130434785,3.2065217391304346,13.44404857683761,26.87489889560925,40.31894747244686,483.2353953403706,581.5675385674881
1.7089462666803186E12,2.3260869565217392,-6.423913043478261,3.2717391304347827,13.451332861343964,26.890332924167268,40.34166578551123,483.2328710833635,581.5697743379801
1.7089462666998503E12,2.3152173913043477,-6.467391304347826,3.2717391304347827,13.494100987208007,26.88946746462196,40.383568451829966,483.2321498670757,581.5829004744173
1.708946266719382E12,2.3043478260869565,-6.478260869565217,3.282608695652174,13.511842907886853,26.90742575018713,40.41926865807398,483.22998621821245,581.6007866383537
1.7089462667389138E12,2.358695652173913,-6.478260869565217,3.282608695652174,13.548697060191282,26.91975854870779,40.46845560889907,483.22753408283404,581.6207643295246
1.7089462667584458E12,2.3478260869565215,-6.4021739130434785,3.282608695652174,13.612813188172959,26.932524077001105,40.54533726517406,483.2268849881751,581.6516323866406
1.7089462667779775E12,2.3260869565217392,-6.434782608695652,3.282608695652174,13.642743664114914,26.96880125627533,40.611544920390244,483.22630801514487,581.6451414400508
1.7089462667975093E12,2.293478260869565,-6.369565217391304,3.25,13.651830989340663,27.013083936343666,40.66491492568433,483.2245049744255,581.6087200175191
1.708946266817041E12,2.3260869565217392,-6.434782608695652,3.3043478260869565,13.574660846550566,27.037677411756214,40.61233825830678,483.2261637718873,581.5578742692321
1.708946266836573E12,2.3369565217391304,-6.423913043478261,3.293478260869565,13.473906931150786,26.982215879227624,40.45612281037841,483.2286159072657,581.5477772412034
1.7089462668561047E12,2.3260869565217392,-6.445652173913043,3.3260869565217392,13.440009765626165,26.952069038399344,40.39207880402551,483.2270292314326,581.5477772412034
1.7089462668756365E12,2.3043478260869565,-6.456521739130435,3.358695652173913,13.432004264832052,26.9343271177205,40.36633138255255,483.22883227215203,581.5358771724555
1.7089462668951682E12,2.3152173913043477,-6.456521739130435,3.3152173913043477,13.4294800078249,26.93396650957662,40.36344651740152,483.225298312342,581.5435941867345
1.7089462669147002E12,2.3369565217391304,-6.467391304347826,3.2717391304347827,13.419743587940168,26.941106550825424,40.36085013876559,483.2242164879104,581.5383293078339
1.708946266934232E12,2.3152173913043477,-6.4021739130434785,3.293478260869565,13.439504914224734,26.940024726393787,40.37952964061852,483.22443285279667,581.5402765918108
1.7089462669537637E12,2.3043478260869565,-6.391304347826087,3.2717391304347827,13.42897515642347,26.95365571423241,40.38263087065588,483.2256589204859,581.5371753617735
1.7089462669732957E12,2.358695652173913,-6.369565217391304,3.282608695652174,13.426523021045092,26.97219097282779,40.39871399387288,483.2243607311679,581.5363099022281
1.7089462669928274E12,2.3260869565217392,-6.413043478260869,3.282608695652174,13.424287250553043,26.977023121955767,40.40131037250881,483.22385587976646,581.5231116441622
1.7089462670123591E12,2.3260869565217392,-6.423913043478261,3.369565217391304,13.420681169114253,26.978465554531283,40.399146723645536,483.22457709605425,581.5337135235923
1.7089462670318909E12,2.3260869565217392,-6.467391304347826,3.3478260869565215,13.431427291801846,26.968584891389,40.400012183190846,483.2242164879104,581.5378244564324
1.7089462670514229E12,2.3152173913043477,-6.467391304347826,3.369565217391304,13.419094493281186,26.971253391653704,40.39034788493489,483.2243607311679,581.5384014294626
1.7089462670709546E12,2.3152173913043477,-6.434782608695652,3.3260869565217392,13.413757492751778,26.96432971529123,40.378087208043006,483.22544255559956,581.5351559561677
1.7089462670904863E12,2.3369565217391304,-6.423913043478261,3.3260869565217392,13.42774908873428,26.957406038928752,40.38515512766303,483.22414436628156,581.5309007800699
1.708946267110018E12,2.3369565217391304,-6.391304347826087,3.3260869565217392,13.417796303963222,26.9572617956712,40.37505809963442,483.22219708230466,581.5327759424181
1.70894626712955E12,2.3478260869565215,-6.380434782608695,3.3260869565217392,13.413108398092795,26.951852673513017,40.36496107160581,483.2255867988571,581.5309007800699
1.7089462671490818E12,2.3152173913043477,-6.391304347826087,3.3478260869565215,13.417940547220773,26.949833267907294,40.36777381512807,483.22486558256935,581.5278716716614
1.7089462671686135E12,2.3369565217391304,-6.4021739130434785,3.358695652173913,13.413757492751778,26.95228540328567,40.36604289603745,483.225298312342,581.521236481814
1.7089462671881453E12,2.3478260869565215,-6.423913043478261,3.3478260869565215,13.415560533471172,26.952357524914447,40.36791805838562,483.22601952862976,581.5252031713967
1.7089462672076772E12,2.3478260869565215,-6.456521739130435,3.369565217391304,13.417435695819343,26.949256294877088,40.36669199069643,483.2245049744255,581.51676494083
1.708946267227209E12,2.3260869565217392,-6.456521739130435,3.358695652173913,13.414262344153208,26.946732037869936,40.360994382023144,483.22443285279667,581.5215249683291
1.7089462672467407E12,2.3043478260869565,-6.423913043478261,3.358695652173913,13.424936345212025,26.945073240408092,40.37000958562012,483.2265243800312,581.5290977393506
1.7089462672662727E12,2.3260869565217392,-6.434782608695652,3.3260869565217392,13.42125814214446,26.947958105559124,40.369216247703584,483.22601952862976,581.5150340217393
1.7089462672858044E12,2.3260869565217392,-6.413043478260869,3.358695652173913,13.422051480060993,26.942621105029716,40.36467258509071,483.2303468263563,581.5266456039722
1.7089462673053362E12,2.3260869565217392,-6.4021739130434785,3.3369565217391304,13.415344168584845,26.954304808891393,40.36964897747624,483.2256589204859,581.5210201169277
1.708946267324868E12,2.3260869565217392,-6.413043478260869,3.3804347826086953,13.421546628659563,26.951852673513017,40.37339930217258,483.225298312342,581.5259243876844
1.7089462673444E12,2.293478260869565,-6.413043478260869,3.369565217391304,13.421907236803442,26.951347822111586,40.37325505891503,483.22400012302404,581.5363099022281
1.7089462673639316E12,2.3152173913043477,-6.4021739130434785,3.3260869565217392,13.421546628659563,26.952718133058326,40.37426476171789,483.22183647416074,581.5277995500326
1.7089462673834634E12,2.293478260869565,-6.445652173913043,3.358695652173913,13.440658860285147,27.001255989224433,40.44191484950958,483.2252261907132,581.5274389418887
1.708946267402995E12,2.3152173913043477,-6.434782608695652,3.3369565217391304,13.442245536118214,26.995918988695024,40.43816452481324,483.2236395148802,581.5283044014341
1.708946267422527E12,2.3260869565217392,-6.413043478260869,3.3804347826086953,13.483571229406742,27.003996611117913,40.487567840524655,483.22544255559956,581.5117164268156
1.7089462674420588E12,2.3260869565217392,-6.423913043478261,3.358695652173913,13.449024969223139,26.97868191941761,40.42770688864075,483.22428860953914,581.5290977393506
1.7089462674615906E12,2.293478260869565,-6.423913043478261,3.3369565217391304,13.436908535588806,26.92098461639698,40.357893151985785,483.22313466347873,581.548282092605
1.7089462674811223E12,2.3043478260869565,-6.413043478260869,3.293478260869565,13.42313330449263,26.911753047913678,40.33488635240631,483.22356739325136,581.542151754159
1.7089462675006543E12,2.3043478260869565,-6.423913043478261,3.282608695652174,13.415055682069742,26.913483967004296,40.32853964907404,483.2267407449175,581.5407093215834
1.708946267520186E12,2.3152173913043477,-6.4021739130434785,3.3478260869565215,13.416498114645258,26.91752277821574,40.334020892861,483.2273177179477,581.5360214157131
1.7089462675397178E12,2.3152173913043477,-6.434782608695652,3.3152173913043477,13.409141708510127,26.935048334008258,40.344190042518385,483.22998621821245,581.5389062808641
1.7089462675592498E12,2.3043478260869565,-6.413043478260869,3.358695652173913,13.683131776229356,27.473003563046884,41.15613533927624,483.2278946909779,581.3110019339326
1.7089462675787815E12,2.3478260869565215,-6.423913043478261,3.3804347826086953,13.967867966636177,28.20280232462911,42.17067029126529,483.22926500192466,580.8158869523868
1.7089462675983132E12,2.293478260869565,-6.434782608695652,3.260869565217391,13.475132998839975,26.782655332405014,40.25778833124499,483.23164501567425,581.5762652845699
1.708946267617845E12,2.3152173913043477,-6.380434782608695,3.467391304347826,13.471599039029961,26.963824863889798,40.43542390291976,483.2250819474557,581.5571530529444
1.708946267637377E12,2.2717391304347827,-6.445652173913043,3.282608695652174,13.466117795243001,26.943486564575025,40.409604359818026,483.22868802889445,581.5543403094221
1.7089462676569087E12,2.3260869565217392,-6.413043478260869,3.3043478260869565,13.466262038500552,26.943702929461352,40.409964967961905,483.2279668126067,581.5620573237011
1.7089462676764404E12,2.3152173913043477,-6.380434782608695,3.3043478260869565,13.476286944900387,26.942981713173594,40.41926865807398,483.2255146772283,581.5632833913903
1.7089462676959722E12,2.3152173913043477,-6.369565217391304,3.369565217391304,13.486744581072877,26.957694525443856,40.44443910651673,483.22248556881976,581.580087730895
1.7089462677155042E12,2.293478260869565,-6.467391304347826,3.3152173913043477,13.51054471856889,26.960074539193457,40.470619257762344,483.22472133931177,581.582035014872
1.708946267735036E12,2.3152173913043477,-6.467391304347826,3.3478260869565215,13.52201205754424,26.984740136234777,40.506752193779015,483.2214758660169,581.5963150973696
1.7089462677545676E12,2.391304347826087,-6.478260869565217,3.3478260869565215,13.566871710642781,26.979475257334144,40.54634696797692,483.21678796014646,581.5991999625206
1.7089462677740994E12,2.380434782608696,-6.413043478260869,3.3369565217391304,13.60884649859029,26.99440443449074,40.60325093308103,483.2172206899191,581.6171582480858
1.7089462677936313E12,2.3369565217391304,-6.369565217391304,3.3152173913043477,13.671952923769108,27.005511165322208,40.677464089091316,483.21736493317667,581.6311498440683
1.708946267813163E12,2.3152173913043477,-6.413043478260869,3.3152173913043477,13.691137277023468,27.03118646516639,40.72232374218986,483.2166437168889,581.6273995193719
1.7089462678326948E12,2.3478260869565215,-6.434782608695652,3.3478260869565215,13.6529128137723,27.0916243900805,40.7445372038528,483.2172928115479,581.564004607678
1.7089462678522266E12,2.3478260869565215,-6.413043478260869,3.358695652173913,13.569756575793813,27.086936484210078,40.65669306000389,483.2166437168889,581.5180631301479
1.7089462678717585E12,2.3369565217391304,-6.434782608695652,3.369565217391304,13.497202217245368,27.021738531796757,40.51894074904212,483.21916797389605,581.5040715341654
1.7089462678912903E12,2.3478260869565215,-6.456521739130435,3.369565217391304,13.475637850241405,27.01394939588897,40.48958724613038,483.21988919018384,581.490368424698
1.708946267910822E12,2.3152173913043477,-6.478260869565217,3.358695652173913,13.467415984560965,27.004934192291998,40.47235017685296,483.22089889298667,581.500032722954
1.708946267930354E12,2.3260869565217392,-6.489130434782608,3.25,13.478522715392437,26.992817758657665,40.4713404740501,483.22162010927445,581.5084709535207
1.7089462679498857E12,2.3260869565217392,-6.423913043478261,3.3260869565217392,13.477008161188145,27.00954997653365,40.486558137721794,483.2234952716226,581.4998163580676
1.7089462679694175E12,2.3260869565217392,-6.391304347826087,3.260869565217391,13.485085783611034,27.014237882404075,40.49932366601511,483.2287601505232,581.5063073046574
1.7089462679889492E12,2.3478260869565215,-6.380434782608695,3.2282608695652173,13.484653053838379,27.02166641016798,40.50631946400636,483.2273177179477,581.4998163580676
1.7089462680084812E12,2.3043478260869565,-6.358695652173913,3.2065217391304346,13.478017863991006,27.04431260160358,40.522330465594585,483.2291928802959,581.5018357636733
1.708946268028013E12,2.3043478260869565,-6.413043478260869,3.282608695652174,13.48068636425571,27.037316803612327,40.51800316786804,483.23027470472755,581.4931090465915
1.7089462680475447E12,2.3043478260869565,-6.467391304347826,3.260869565217391,13.479820904710401,27.043375020429494,40.523195925139895,483.23337593476487,581.4916666140159
1.7089462680670764E12,2.3152173913043477,-6.489130434782608,3.2282608695652173,13.479460296566522,27.026426437667183,40.505886734233705,483.23265471847714,581.4946957224245
1.7089462680866084E12,2.3260869565217392,-6.5,3.25,13.477224526074473,27.036811952210897,40.51403647828537,483.2335922996512,581.4934696547353
1.7089462681061401E12,2.3260869565217392,-6.445652173913043,3.2391304347826084,13.485734878270016,27.022964599485945,40.50869947775596,483.2377032324914,581.4872671946606
1.7089462681256719E12,2.3369565217391304,-6.391304347826087,3.2065217391304346,13.477224526074473,27.017339112441434,40.494563638515906,483.2398668813547,581.4816417076161
1.7089462681452036E12,2.358695652173913,-6.4021739130434785,3.2065217391304346,13.482345161717554,27.015752436608366,40.49809759832592,483.24361720605106,581.4917387356447
1.7089462681647356E12,2.3043478260869565,-6.391304347826087,3.1956521739130435,13.483282742891639,27.012146355169577,40.495429098061216,483.2439778141949,581.4820744373887
1.7089462681842673E12,2.3152173913043477,-6.434782608695652,3.1956521739130435,13.490062175996563,27.008107543958133,40.498169719954696,483.2439778141949,581.4891423570087
1.708946268203799E12,2.3369565217391304,-6.434782608695652,3.2065217391304346,13.484148202436948,27.012362720055904,40.49651092249285,483.24361720605106,581.48553627557
1.708946268223331E12,2.3260869565217392,-6.467391304347826,3.1739130434782608,13.489990054367787,27.009261490018545,40.49925154438633,483.24419417908126,581.4805598831845
1.7089462682428628E12,2.3152173913043477,-6.467391304347826,3.141304347826087,13.486600337815325,27.00298690831505,40.48958724613038,483.24801662540636,581.4838053564794
1.7089462682623945E12,2.3260869565217392,-6.434782608695652,3.1956521739130435,13.482633648232657,27.00421297600424,40.4868466242369,483.2494590579819,581.4810647345859
1.7089462682819263E12,2.3043478260869565,-6.423913043478261,3.1739130434782608,13.480902729142038,27.002554178542397,40.483456907684435,483.24931481472436,581.4876999244333
1.7089462683014583E12,2.3043478260869565,-6.434782608695652,3.1630434782608696,13.48292213474776,27.012002111912025,40.494924246659785,483.25227180150415,581.4731313554206
1.70894626832099E12,2.3043478260869565,-6.434782608695652,3.152173913043478,13.479460296566522,27.007530570927926,40.48699086749445,483.2550124233976,581.4915944923872
1.7089462683405217E12,2.3260869565217392,-6.434782608695652,3.152173913043478,13.481407580543468,27.007674814185478,40.489082394728946,483.2537863557084,581.4831562618203
1.7089462683600535E12,2.3043478260869565,-6.413043478260869,3.152173913043478,13.483571229406742,27.00248205691362,40.48605328632036,483.25595000457173,581.4839495997369
1.7089462683795854E12,2.3043478260869565,-6.434782608695652,3.152173913043478,13.497130095616592,27.03385496543109,40.53098506104768,483.2567433424882,581.4850314241686
1.7089462683991172E12,2.3043478260869565,-6.434782608695652,3.1304347826086953,13.503765285463965,27.040418033649686,40.54418331911365,483.2586185048364,581.4751507610263
1.708946268418649E12,2.3260869565217392,-6.434782608695652,3.1630434782608696,13.545884316669026,27.072584280083696,40.61846859675272,483.26078215369967,581.4679385981487
1.7089462684381807E12,2.3260869565217392,-6.423913043478261,3.1630434782608696,13.538527910533896,27.03839862804397,40.576926538577865,483.260998518586,581.4563270159158
1.7089462684577126E12,2.3369565217391304,-6.423913043478261,3.141304347826087,13.477008161188145,26.97356128377453,40.450569444962674,483.2628015593054,581.487772046062
1.7089462684772444E12,2.3260869565217392,-6.445652173913043,3.108695652173913,13.478883323536316,26.953727835861187,40.4326111593975,483.2618639781313,581.4925320735613
1.7089462684967761E12,2.3152173913043477,-6.434782608695652,3.119565217391304,13.476503309786715,26.956324214497116,40.43282752428383,483.2612870051011,581.4902963030692
1.708946268516308E12,2.3152173913043477,-6.423913043478261,3.152173913043478,13.493451892549025,26.939087145219702,40.43253903776873,483.2620082213889,581.4920993437886
1.7089462685358398E12,2.3369565217391304,-6.434782608695652,3.119565217391304,13.47931605330897,26.96447395854878,40.44379001185775,483.26236882953276,581.4851035457973
1.7089462685553716E12,2.3478260869565215,-6.467391304347826,3.141304347826087,13.610072566279479,27.224400308656733,40.83447287493621,483.2630900458205,581.4545239751964
1.7089462685749033E12,2.3369565217391304,-6.434782608695652,3.141304347826087,13.954669708570208,28.125343695323913,42.08001340389412,483.2615754916162,580.9637362913771
1.7089462685944353E12,2.358695652173913,-6.434782608695652,3.0869565217391304,13.576608130527513,26.855281812582234,40.431889943109745,483.26777795169096,581.5028454664762
1.708946268613967E12,2.282608695652174,-6.445652173913043,3.152173913043478,13.540042464738187,26.884346828978877,40.42438929371706,483.26590278934276,581.5382571862051
1.7089462686334988E12,2.2717391304347827,-6.423913043478261,3.0760869565217392,13.529945436709577,26.984668014606,40.514613451315576,483.26676824888807,581.5116443051868
1.7089462686530305E12,2.3369565217391304,-6.4021739130434785,3.0978260869565215,13.541412775684927,26.96634912089695,40.507761896581876,483.2670567354032,581.500970304128
1.7089462686725625E12,2.369565217391304,-6.358695652173913,3.152173913043478,13.539609734965532,26.98538923089376,40.52499896585929,483.2703743303269,581.4931090465915
1.7089462686920942E12,2.3478260869565215,-6.423913043478261,3.1956521739130435,13.554322547235794,27.000679016194233,40.555001563430025,483.269364627524,581.5044321423093
1.708946268711626E12,2.3043478260869565,-6.543478260869565,3.108695652173913,13.568530508104624,26.997072934755444,40.565603442860066,483.26799431657724,581.507100642574
1.7089462687311577E12,2.282608695652174,-6.532608695652174,3.0978260869565215,13.61432774237725,26.992889880286448,40.6072176226637,483.26828280309235,581.5381129429476
1.7089462687506897E12,2.369565217391304,-6.456521739130435,3.0978260869565215,13.634449676805698,27.02000761270614,40.65445728951184,483.2692203842665,581.5342183749937
1.7089462687702214E12,2.358695652173913,-6.4021739130434785,3.0760869565217392,13.699575507590236,27.012795449828563,40.7123709574188,483.27044645195565,581.5564318366565
1.7089462687897532E12,2.358695652173913,-6.3478260869565215,3.141304347826087,13.736141173379561,27.010343314450186,40.74648448782975,483.27073493847075,581.5715773786995
1.7089462688092852E12,2.3152173913043477,-6.380434782608695,3.0978260869565215,13.765783162806413,27.043735628573373,40.80951879137979,483.2734755603642,581.5541239445357
1.708946268828817E12,2.3369565217391304,-6.4021739130434785,3.119565217391304,13.739026038530593,27.09335530917112,40.83238134770171,483.27470162805344,581.512221278217
1.7089462688483486E12,2.3043478260869565,-6.413043478260869,3.0760869565217392,13.653201300287403,27.106986297009744,40.76018759729715,483.27614406062895,581.4706070984134
1.7089462688678804E12,2.3478260869565215,-6.4021739130434785,3.0978260869565215,13.566871710642781,27.057510859669556,40.624382570312335,483.2773701283181,581.4459415013721
1.7089462688874124E12,2.3369565217391304,-6.434782608695652,3.119565217391304,13.547615235759645,27.014165760775306,40.56178099653495,483.27722588506055,581.4444990687965
1.708946268906944E12,2.358695652173913,-6.467391304347826,3.0978260869565215,13.52799815273263,27.008612395359563,40.53661054809219,483.27470162805344,581.4377917573204
1.7089462689264758E12,2.3369565217391304,-6.456521739130435,3.0543478260869565,13.508453191334391,27.01380515263142,40.52225834396581,483.27484587131096,581.4377917573204
1.7089462689460076E12,2.3152173913043477,-6.423913043478261,3.0543478260869565,13.503404677320086,27.019070031532053,40.52247470885214,483.2752064794548,581.444066339024
1.7089462689655396E12,2.3478260869565215,-6.380434782608695,2.9891304347826084,13.502899825918655,27.025921586265753,40.528821412184406,483.2767931552879,581.4342577975104
1.7089462689850713E12,2.3152173913043477,-6.3478260869565215,3.0760869565217392,13.509895623909907,27.02851796490168,40.538413588811586,483.27585557411385,581.4298583781551
1.708946269004603E12,2.3043478260869565,-6.434782608695652,3.1304347826086953,13.50520771803948,27.035297398006605,40.540505116046084,483.27340343873544,581.4332480947076
1.7089462690241348E12,2.3478260869565215,-6.456521739130435,3.1630434782608696,13.509246529250925,27.039696817361936,40.54894334661286,483.27188888453117,581.4292814051249
1.7089462690436667E12,2.3260869565217392,-6.510869565217391,3.141304347826087,13.51155442137175,27.039047722702954,40.5506021440747,483.273547681993,581.4262522967163
1.7089462690631985E12,2.3152173913043477,-6.489130434782608,3.119565217391304,13.512708367432163,27.0365234656958,40.54923183312796,483.2727543440765,581.4149292009985
1.7089462690827302E12,2.3043478260869565,-6.456521739130435,3.108695652173913,13.489557324595133,27.03522527637783,40.52478260097296,483.27253797919013,581.4338971893666
1.7089462691022622E12,2.293478260869565,-6.423913043478261,3.0869565217391304,13.497057973987816,27.021810653425533,40.51886862741335,483.2714561547585,581.4276947292918
1.708946269121794E12,2.3043478260869565,-6.423913043478261,3.0978260869565215,13.486816702701653,27.025488856493098,40.51230555919475,483.26958099241034,581.4138473765669
1.7089462691413257E12,2.3260869565217392,-6.434782608695652,3.108695652173913,13.473906931150786,27.02714765395494,40.50105458510573,483.27001372218297,581.4267571481178
1.7089462691608574E12,2.3260869565217392,-6.391304347826087,3.0978260869565215,13.483066378005311,27.013372422858765,40.49643880086408,483.2690761410089,581.4092315923252
1.7089462691803894E12,2.3043478260869565,-6.434782608695652,3.0652173913043477,13.474051174408338,27.017699720585313,40.49175089499365,483.2670567354032,581.4152176875136
1.7089462691999211E12,2.293478260869565,-6.423913043478261,3.0652173913043477,13.47282510671915,27.017988207100416,40.490813313819565,483.26857128960745,581.4129097953928
1.708946269219453E12,2.3043478260869565,-6.445652173913043,3.0869565217391304,13.480902729142038,27.02375793740248,40.50466066654452,483.26547005957013,581.4122607007338
1.7089462692389846E12,2.293478260869565,-6.434782608695652,3.108695652173913,13.475998458385284,27.064290292774473,40.54028875115976,483.2612870051011,581.4030291322505
1.7089462692585166E12,2.3369565217391304,-6.456521739130435,3.0869565217391304,13.48104697239959,27.10143293159401,40.5824799039936,483.2638112621083,581.3881720767226
1.7089462692780483E12,2.3478260869565215,-6.445652173913043,3.0978260869565215,13.521579327771585,27.114703311288757,40.63628263906034,483.261647613245,581.368122263923
1.70894626929758E12,2.3369565217391304,-6.434782608695652,3.108695652173913,13.506505907357445,27.096023809435827,40.60252971679327,483.2599888157832,581.3712956155891
1.7089462693171118E12,2.3152173913043477,-6.456521739130435,3.0978260869565215,13.443327360549851,27.021089437137775,40.464416797687626,483.2557336396854,581.395816969373
1.7089462693366438E12,2.3043478260869565,-6.423913043478261,3.0760869565217392,13.453352266949686,26.993827461460526,40.44717972841021,483.257464558776,581.3871623739199
1.7089462693561755E12,2.3260869565217392,-6.413043478260869,3.0652173913043477,13.437846116762891,27.00882876024589,40.44667487700878,483.2586185048364,581.3976200100923
1.7089462693757073E12,2.3152173913043477,-6.456521739130435,3.108695652173913,13.433879427180223,27.011136652366716,40.44501607954694,483.256166369458,581.3885326848665
1.7089462693952393E12,2.3152173913043477,-6.456521739130435,3.0978260869565215,13.422195723318545,27.009982706306303,40.43217842962485,483.2558778829429,581.4032454971368
1.708946269414771E12,2.3152173913043477,-6.489130434782608,3.0869565217391304,13.547615235759645,27.28664127429024,40.83425651004988,483.2517669501027,581.3474233564643
1.7089462694343027E12,2.358695652173913,-6.467391304347826,3.108695652173913,13.871008619190292,28.27528456154878,42.14629318073907,483.2529930177919,580.8397592115116
1.7089462694538345E12,2.3478260869565215,-6.445652173913043,3.043478260869565,13.511410178114199,26.94406353760523,40.45547371571943,483.2544354503674,581.3966824289182
1.7089462694733665E12,2.260869565217391,-6.413043478260869,3.1630434782608696,13.46460324103871,26.980268595250678,40.44487183628939,483.25342574756456,581.4296420132688
1.7089462694928982E12,2.282608695652174,-6.423913043478261,3.0760869565217392,13.466550525015656,27.047774439784817,40.51432496480047,483.251045733815,581.3947351449413
1.70894626951243E12,2.3369565217391304,-6.434782608695652,3.010869565217391,13.469002660394032,27.046620493724404,40.51562315411844,483.2496754228682,581.3963218207743
1.7089462695319617E12,2.369565217391304,-6.434782608695652,3.0543478260869565,13.472608741832822,27.066526063266522,40.539134805099344,483.25140634195884,581.4082218895223
1.7089462695514937E12,2.3369565217391304,-6.423913043478261,3.0978260869565215,13.476359066529163,27.07611823989371,40.55247730642287,483.2469348009747,581.4125491872489
1.7089462695710254E12,2.3152173913043477,-6.5,3.108695652173913,13.486816702701653,27.082897672998634,40.569714375700286,483.2418141653317,581.4095922004691
1.7089462695905571E12,2.293478260869565,-6.489130434782608,3.0978260869565215,13.523742976634859,27.089604984474782,40.61334796110964,483.2423911383619,581.4268292697465
1.7089462696100889E12,2.3152173913043477,-6.489130434782608,3.0869565217391304,13.551365560455986,27.101721418109115,40.6530869785651,483.24087658415755,581.4361329598586
1.7089462696296208E12,2.369565217391304,-6.445652173913043,3.0978260869565215,13.605240417151501,27.112323297539156,40.717563714690655,483.2381359622641,581.4670010169746
1.7089462696491526E12,2.369565217391304,-6.434782608695652,3.0978260869565215,13.633295730745285,27.130570069619427,40.76386580036471,483.2331595698786,581.470751341671
1.7089462696686843E12,2.293478260869565,-6.423913043478261,3.0869565217391304,13.668274720701543,27.158048410183003,40.826323130884546,483.2331595698786,581.4571203538324
1.708946269688216E12,2.3152173913043477,-6.413043478260869,3.0978260869565215,13.635819987752438,27.194469832714777,40.830289820467215,483.23366442127997,581.4080776462648
1.708946269707748E12,2.3152173913043477,-6.423913043478261,3.0760869565217392,13.51241988091706,27.193027400139265,40.70544728105632,483.2338807861663,581.3625688985072
1.7089462697272798E12,2.3152173913043477,-6.445652173913043,3.0869565217391304,13.46323293009197,27.15848113995566,40.62171407004763,483.23366442127997,581.3521112623348
1.7089462697468115E12,2.3260869565217392,-6.445652173913043,3.119565217391304,13.435682467899618,27.143479841170297,40.579162309069915,483.22984197495487,581.3422305991925
1.7089462697663435E12,2.3043478260869565,-6.489130434782608,3.119565217391304,13.425224831727128,27.131363407535964,40.55658823926309,483.2252261907132,581.3399227070717
1.7089462697858752E12,2.3043478260869565,-6.5,3.119565217391304,13.422844817977527,27.130497947990655,40.55334276596818,483.22472133931177,581.3155455965455
1.708946269805407E12,2.3043478260869565,-6.467391304347826,3.2065217391304346,13.421907236803442,27.14225377348111,40.56416101028455,483.22515406908445,581.3167716642347
1.7089462698249387E12,2.282608695652174,-6.434782608695652,3.0760869565217392,13.412819911577692,27.15732719389525,40.57014710547294,483.225947407001,581.3114346637052
1.7089462698444707E12,2.3152173913043477,-6.413043478260869,3.108695652173913,13.413469006236674,27.165260573060586,40.57872957929726,483.2250819474557,581.30350128454
1.7089462698640024E12,2.3152173913043477,-6.380434782608695,3.0652173913043477,13.407338667790732,27.171246668248976,40.57858533603971,483.2229182985924,581.2985970137831
1.7089462698835342E12,2.3043478260869565,-6.380434782608695,3.1304347826086953,13.412315060176262,27.17629518226328,40.58861024243954,483.22486558256935,581.3245608001424
1.708946269903066E12,2.293478260869565,-6.434782608695652,3.1304347826086953,13.41404597926688,27.168361803097945,40.582407782364825,483.2262358935161,581.3222529080216
1.708946269922598E12,2.3043478260869565,-6.456521739130435,3.184782608695652,13.403732586351943,27.171246668248976,40.57497925460092,483.22573104211466,581.3157619614318
1.7089462699421296E12,2.293478260869565,-6.467391304347826,3.1739130434782608,13.395005869270072,27.16756846518141,40.56257433445148,483.2208267713579,581.3218922998777
1.7089462699616614E12,2.293478260869565,-6.478260869565217,3.141304347826087,13.39111130131618,27.166414519121,40.55752582043718,483.2214758660169,581.3084776769255
1.708946269981193E12,2.293478260869565,-6.413043478260869,3.152173913043478,13.380293056999811,27.16114964022036,40.54144269722017,483.2192400955248,581.3213874484763
1.708946270000725E12,2.3152173913043477,-6.413043478260869,3.152173913043478,13.370123907342423,27.16576542446201,40.535889331804434,483.218230392722,581.3141031639699
1.7089462700202568E12,2.3043478260869565,-6.413043478260869,3.184782608695652,13.368753596395683,27.16389026211384,40.53264385850952,483.2187352441234,581.3130213395383
1.7089462700397886E12,2.282608695652174,-6.456521739130435,3.1956521739130435,13.37243179946325,27.155019301774416,40.527451101237666,483.2158503789724,581.3172043940073
1.7089462700593206E12,2.3043478260869565,-6.467391304347826,3.1956521739130435,13.373441502266111,27.159851450902394,40.533292953168505,483.21621098711626,581.3119395151067
1.7089462700788523E12,2.3369565217391304,-6.423913043478261,3.217391304347826,13.367743893592822,27.165476937946906,40.53322083153973,483.2141194598818,581.3095595013571
1.708946270098384E12,2.3152173913043477,-6.413043478260869,3.2065217391304346,13.36796025847915,27.160139937417497,40.52810019589665,483.21743705480543,581.3049437171154
1.7089462701179158E12,2.3260869565217392,-6.423913043478261,3.2065217391304346,13.373441502266111,27.188051007753735,40.561492510019846,483.21736493317667,581.312155879993
1.7089462701374478E12,2.293478260869565,-6.445652173913043,3.184782608695652,13.383682773552273,27.24156525630537,40.625248029857644,483.2155618924573,581.2930436483674
1.7089462701569795E12,2.3369565217391304,-6.423913043478261,3.217391304347826,13.43308608926369,27.25562897391665,40.68871506318034,483.2115952028746,581.2737150518554
1.7089462701765112E12,2.3260869565217392,-6.445652173913043,3.2391304347826084,13.414983560440966,27.228871849640832,40.6438554100818,483.21375885173785,581.2814320661345
1.708946270196043E12,2.3152173913043477,-6.445652173913043,3.2282608695652173,13.383538530294722,27.17189576290796,40.55543429320268,483.21404733825295,581.2978757974954
1.708946270215575E12,2.3260869565217392,-6.434782608695652,3.2282608695652173,13.3681045017367,27.130425826361872,40.498530328098575,483.21462431128316,581.3055206901456
1.7089462702351067E12,2.3043478260869565,-6.423913043478261,3.2282608695652173,13.360459609086467,27.140811340905586,40.501270949992055,483.2149849194271,581.2889327155272
1.7089462702546384E12,2.293478260869565,-6.445652173913043,3.217391304347826,13.367455407077719,27.13266159685392,40.50011700393164,483.2158503789724,581.287057553179
1.7089462702741702E12,2.293478260869565,-6.434782608695652,3.260869565217391,13.371061488516508,27.140306489504155,40.511367978020665,483.2142637031393,581.2834514717402
1.7089462702937021E12,2.3152173913043477,-6.445652173913043,3.260869565217391,13.42861454827959,27.404127407566,40.83274195584559,483.21152308124584,581.2432076028833
1.708946270313234E12,2.3043478260869565,-6.423913043478261,3.282608695652174,13.85918067207106,28.27268818291285,42.131868854983914,483.20907094586744,580.7482368645951
1.7089462703327656E12,2.3369565217391304,-6.423913043478261,3.2391304347826084,13.714721049633152,27.95607423258713,41.67079528222028,483.21462431128316,580.8655066329845
1.7089462703522976E12,2.3369565217391304,-6.423913043478261,3.260869565217391,13.421907236803442,27.138431327155992,40.560338563959434,483.213398243594,581.3469906266916
1.7089462703718293E12,2.3043478260869565,-6.4021739130434785,3.358695652173913,13.4181569121071,27.190286778245785,40.608443690352885,483.213398243594,581.3386245177537
1.708946270391361E12,2.3260869565217392,-6.434782608695652,3.2391304347826084,13.430273345741433,27.16605391097712,40.59632725671855,483.2110182298444,581.3375426933221
1.7089462704108928E12,2.358695652173913,-6.423913043478261,3.2065217391304346,13.42226784494732,27.179540655558192,40.60180850050551,483.21260490567744,581.3400669503292
1.7089462704304248E12,2.3369565217391304,-6.380434782608695,3.2282608695652173,13.442029171231887,27.184084318171067,40.626113489402954,483.212749148935,581.3397063421853
1.7089462704499565E12,2.3260869565217392,-6.413043478260869,3.293478260869565,13.454217726494996,27.191440724306197,40.64565845080119,483.2064745672315,581.3438172750256
1.7089462704694883E12,2.3043478260869565,-6.467391304347826,3.293478260869565,13.466550525015656,27.19634499506295,40.66289552007861,483.20229151276254,581.3519670190773
1.70894627048902E12,2.3260869565217392,-6.456521739130435,3.3152173913043477,13.510328353682562,27.202908063281548,40.71323641696411,483.2056091076862,581.3635064796814
1.708946270508552E12,2.358695652173913,-6.456521739130435,3.3152173913043477,13.543792789434528,27.212428118279952,40.75622090771448,483.20524849954234,581.3735313860811
1.7089462705280837E12,2.358695652173913,-6.391304347826087,3.293478260869565,13.608197403931309,27.229520944299814,40.83771834823112,483.2007769585582,581.4013703347887
1.7089462705476155E12,2.3152173913043477,-6.380434782608695,3.3043478260869565,13.638632731274694,27.24531558100171,40.8839483122764,483.19861330969496,581.398052739865
1.7089462705671472E12,2.3152173913043477,-6.423913043478261,3.3043478260869565,13.606899214613344,27.31303779042218,40.91993700503552,483.2009212018158,581.3352348012013
1.7089462705866792E12,2.3152173913043477,-6.413043478260869,3.3369565217391304,13.535498802125312,27.32125965610262,40.85675845822793,483.20200302624744,581.2954236621171
1.708946270606211E12,2.3260869565217392,-6.391304347826087,3.3804347826086953,13.448592239450484,27.264067204483418,40.7126594439339,483.20185878298986,581.2661422808341
1.7089462706257427E12,2.3260869565217392,-6.445652173913043,3.3478260869565215,13.41938297979629,27.24156525630537,40.66094823610166,483.19919028272517,581.2621034696226
1.7089462706452747E12,2.3260869565217392,-6.434782608695652,3.402173913043478,13.416858722789136,27.231900958049415,40.64875968083855,483.1978199717784,581.2533767525407
1.7089462706648064E12,2.3152173913043477,-6.489130434782608,3.3478260869565215,13.406328964987871,27.22908821452716,40.63541717951503,483.1962332959454,581.2582810232975
1.7089462706843381E12,2.3260869565217392,-6.467391304347826,3.293478260869565,13.415632655099948,27.23060276873145,40.6462354238314,483.20128180995965,581.2719120111361
1.7089462707038699E12,2.3152173913043477,-6.423913043478261,3.3043478260869565,13.42212360168977,27.236660985548617,40.65878458723839,483.1991181610964,581.2689550243563
1.7089462707234019E12,2.3369565217391304,-6.369565217391304,3.3152173913043477,13.423854520780388,27.24589255403192,40.66974707481231,483.1991181610964,581.2656374294326
1.7089462707429336E12,2.3478260869565215,-6.369565217391304,3.282608695652174,13.41628174975893,27.263562353081987,40.67984410284092,483.1990460394676,581.2564779825781
1.7089462707624653E12,2.3152173913043477,-6.4021739130434785,3.3260869565217392,13.422195723318545,27.259451420241767,40.68164714356031,483.1982527015511,581.2452270084891
1.708946270781997E12,2.3369565217391304,-6.423913043478261,3.358695652173913,13.41491143881219,27.267529042664655,40.682440481476846,483.19659390408924,581.2591464828428
1.708946270801529E12,2.3478260869565215,-6.467391304347826,3.358695652173913,13.412026573661159,27.268250258952413,40.68027683261357,483.19601693105903,581.2659980375765
1.7089462708210608E12,2.3369565217391304,-6.445652173913043,3.3478260869565215,13.419671466311392,27.261398704218713,40.681070170530106,483.1965217824605,581.260661037047
1.7089462708405925E12,2.3369565217391304,-6.445652173913043,3.3478260869565215,13.40481441078358,27.25685504160584,40.66166945238942,483.1978199717784,581.2740035383706
1.7089462708601243E12,2.3260869565217392,-6.423913043478261,3.3152173913043477,13.41267566832014,27.248849540811726,40.66152520913187,483.19630541757414,581.2605889154183
1.7089462708796562E12,2.3260869565217392,-6.413043478260869,3.3152173913043477,13.402290153776427,27.255196244143995,40.65748639792042,483.19659390408924,581.2615986182211
1.708946270899188E12,2.3152173913043477,-6.380434782608695,3.3369565217391304,13.417363574190567,27.234353093427792,40.65171666761836,483.1981805799223,581.2540258471997
1.7089462709187197E12,2.3152173913043477,-6.4021739130434785,3.3478260869565215,13.411449600630952,27.242502837479456,40.65395243811041,483.19479086336986,581.2580646584112
1.7089462709382517E12,2.3260869565217392,-6.413043478260869,3.358695652173913,13.407915640820939,27.242214350964353,40.65012999178529,483.19731512037697,581.2538094823134
1.7089462709577834E12,2.3369565217391304,-6.423913043478261,3.3478260869565215,13.410512019456867,27.237021593692496,40.64753361314936,483.200199985528,581.2517179550789
1.7089462709773152E12,2.3260869565217392,-6.445652173913043,3.3369565217391304,13.415199925327293,27.23608401251841,40.651283937845704,483.2029406074215,581.255540401404
1.708946270996847E12,2.3043478260869565,-6.445652173913043,3.3369565217391304,13.403299856579288,27.247190743349883,40.65049059992917,483.20214726950496,581.243640332656
1.708946271016379E12,2.3152173913043477,-6.434782608695652,3.3260869565217392,13.421330263773235,27.234641579942895,40.65597184371613,483.2023636343913,581.2499870359883
1.7089462710359106E12,2.3152173913043477,-6.4021739130434785,3.358695652173913,13.411088992487073,27.243224053767214,40.65431304625429,483.20452728325455,581.2341923992864
1.7089462710554424E12,2.3152173913043477,-6.423913043478261,3.3260869565217392,13.424647858696922,27.23456945831412,40.65921731701104,483.20041635041434,581.2428469947395
1.708946271074974E12,2.3043478260869565,-6.423913043478261,3.358695652173913,13.425657561499783,27.23110762013288,40.656765181632665,483.2007769585582,581.2403227377323
1.708946271094506E12,2.3043478260869565,-6.413043478260869,3.3152173913043477,13.426883629188971,27.241132526532716,40.66801615572169,483.2010654450733,581.2292881285296
1.7089462711140378E12,2.3260869565217392,-6.423913043478261,3.3369565217391304,13.436908535588806,27.303661978681326,40.74057051427013,483.19983937738414,581.2111134780781
1.7089462711335696E12,2.3152173913043477,-6.423913043478261,3.3152173913043477,13.434167913695326,27.31628326371709,40.750451177412415,483.2004884720431,581.2170995732665
1.7089462711531013E12,2.3260869565217392,-6.434782608695652,3.3043478260869565,13.500664055426606,27.294069802054146,40.79473385748075,483.1970987554907,581.2219317223945
1.7089462711726333E12,2.3260869565217392,-6.434782608695652,3.3260869565217392,13.441740684716784,27.24877741918295,40.690518103899734,483.200199985528,581.235274223718
1.708946271192165E12,2.3369565217391304,-6.445652173913043,3.3043478260869565,13.427172115704074,27.20081653604705,40.627988651751124,483.2020751478762,581.2499870359883
1.7089462712116968E12,2.3260869565217392,-6.413043478260869,3.3152173913043477,13.42176299354589,27.201465630706032,40.62322862425192,483.20113756670213,581.2537373606846
1.7089462712312285E12,2.3043478260869565,-6.423913043478261,3.3369565217391304,13.42450361543937,27.20319654979665,40.62770016523602,483.20243575602007,581.2408275891337
1.7089462712507605E12,2.3369565217391304,-6.4021739130434785,3.3804347826086953,13.426162412901213,27.206730509606665,40.63289292250788,483.20142605321723,581.2370772644374
1.7089462712702922E12,2.3369565217391304,-6.434782608695652,3.282608695652174,13.397385883019673,27.239834337214752,40.637220220234425,483.2029406074215,581.2639786319708
1.708946271289824E12,2.3369565217391304,-6.423913043478261,3.293478260869565,13.813888289199864,27.97864830239395,41.792536591593816,483.1984690664374,580.9061111099853
