Shimmer_6D72_TimestampSync_Unix_CAL,Shimmer_6D72_Accel_LN_X_CAL,Shimmer_6D72_Accel_LN_Y_CAL,Shimmer_6D72_Accel_LN_Z_CAL,Shimmer_6D72_ECG_LA-RA_24BIT_CAL,Shimmer_6D72_ECG_LL-LA_24BIT_CAL,Shimmer_6D72_ECG_LL-RA_24BIT_CAL,Shimmer_6D72_ECG_RESP_24BIT_CAL,Shimmer_6D72_ECG_Vx-RL_24BIT_CAL
ms,m/(s^2),m/(s^2),m/(s^2),mV,mV,mV,mV,mV
1.7104001234495132E12,1.9456521739130435,-6.271739130434782,3.4891304347826084,-2.79305431760005,2.6755681843242867,-0.1174861332757632,492.8917602171612,592.177567741581
1.710400123469045E12,1.934782608695652,-6.326086956521739,3.4565217391304346,-2.9055640584902833,2.6510468305405177,-0.25451722794976567,492.90164088030355,592.0909496654212
1.7104001234885767E12,1.934782608695652,-6.326086956521739,3.434782608695652,-2.994562148399609,2.5833246211200502,-0.4112375272795591,492.91368519230906,592.0393827008465
1.7104001235081084E12,1.9456521739130435,-6.293478260869565,3.4130434782608696,-3.0189392589258266,2.589238594679665,-0.42970066424616155,492.9015687586747,592.0192607664181
1.7104001235276401E12,1.9782608695652173,-6.315217391304348,3.402173913043478,-3.0425230315355103,2.6104423535397476,-0.4320806779957626,492.9118821515897,592.0147171038052
1.710400123547172E12,1.9782608695652173,-6.315217391304348,3.4130434782608696,-3.0389890717254966,2.6098653805095413,-0.42912369121595517,492.89680873117555,592.0156546849793
1.7104001235667039E12,1.9565217391304348,-6.326086956521739,3.4891304347826084,-3.053918248882085,2.6203951383108066,-0.43352311057127846,492.91116093530195,592.0164480228958
1.7104001235862356E12,1.967391304347826,-6.315217391304348,3.3478260869565215,-3.0575964519496504,2.6402285862241492,-0.4173678657255013,492.93698047840365,592.0030333999435
1.7104001236057673E12,1.9456521739130435,-6.315217391304348,3.532608695652174,-3.0854354006571056,2.6734766570897888,-0.411958743567317,492.89796267723597,591.9976963994142
1.710400123625299E12,1.9130434782608696,-6.4021739130434785,3.5978260869565215,-3.0924311986483572,2.7003059029943826,-0.3921252956539745,492.8978184339784,592.0038988594889
1.7104001236448308E12,1.9565217391304348,-6.434782608695652,3.434782608695652,-3.0956045503144924,2.7094653498489087,-0.38613920046558387,492.9175076386342,591.9911333311956
1.7104001236643625E12,1.9239130434782608,-6.391304347826087,3.5,-3.098777901980627,2.706075633296446,-0.39270226868418084,492.9425338438194,591.9815411545684
1.7104001236838943E12,1.9565217391304348,-6.413043478260869,3.4782608695652173,-3.1059179432294304,2.7181920669307793,-0.3877258762986513,492.92630647734484,591.9863733036964
1.710400123703426E12,1.9239130434782608,-6.391304347826087,3.434782608695652,-3.1165198226594715,2.7298036491636815,-0.3867161734957902,492.8920487036763,591.9857963306662
1.7104001237229578E12,1.934782608695652,-6.434782608695652,3.5217391304347827,-3.129141107695235,2.7770433160118246,-0.35209779168341065,492.90899728643865,591.9671168288132
1.7104001237424897E12,1.9021739130434783,-6.423913043478261,3.510869565217391,-3.1229386476205168,2.8059640891509163,-0.31697455846960054,492.9285422478369,591.9524040165429
1.7104001237620215E12,1.9782608695652173,-6.445652173913043,3.4782608695652173,-3.0813965894456614,2.8608486486492932,-0.22054794079636822,492.9338071267375,591.9299741899937
1.7104001237815532E12,1.967391304347826,-6.423913043478261,3.4565217391304346,-3.12546290462767,2.8671232303527874,-0.2583396742748826,492.92125796333056,591.9196607970788
1.710400123801085E12,1.9239130434782608,-6.391304347826087,3.4891304347826084,-3.1606582594702557,2.780649397450614,-0.3800088620196417,492.9023620965913,591.9213917161694
1.7104001238206167E12,1.9565217391304348,-6.380434782608695,3.434782608695652,-3.160514016212704,2.7699032747630215,-0.3906107414496829,492.87762437792117,591.914107431663
1.7104001238401484E12,1.934782608695652,-6.33695652173913,3.3804347826086953,-3.182871721133199,2.7717063154824158,-0.4111654056507833,492.93878351912304,591.9233390001463
1.7104001238596802E12,1.9239130434782608,-6.380434782608695,3.402173913043478,-3.1938342087071194,2.739179460904534,-0.45465474780258514,492.90755485386313,591.9606258822234
1.710400123879212E12,1.9130434782608696,-6.445652173913043,3.391304347826087,-3.0762038321738046,2.8733978120562806,-0.2028060201175237,492.9178682467781,592.042772417399
1.7104001238987437E12,1.9239130434782608,-6.489130434782608,3.4239130434782608,-2.737809149957794,3.639257388026403,0.9014482380686091,492.91195427321844,591.4776273343119
1.7104001239182756E12,1.9456521739130435,-6.510869565217391,3.369565217391304,-3.1613794757580136,2.7468243535547683,-0.4145551222032455,492.9421732356755,591.6610326362887
1.7104001239378074E12,1.891304347826087,-6.4021739130434785,3.4565217391304346,-3.1375072166332267,2.801636791424369,-0.3358704252088577,492.9509720743862,591.9485094485891
1.710400123957339E12,1.8152173913043477,-6.456521739130435,3.4130434782608696,-3.1471715148891826,2.8382745788424706,-0.3088969360467119,492.91281973276375,591.9740405051757
1.7104001239768708E12,1.8804347826086956,-6.413043478260869,3.282608695652174,-3.138516919436088,2.8501746475904763,-0.28834227184561156,492.92205130124705,591.9865175469539
1.7104001239964026E12,1.8804347826086956,-6.3478260869565215,3.3478260869565215,-3.1395987438677246,2.8713062848217827,-0.26829245904594173,492.93243681579077,591.998706102217
1.7104001240159343E12,1.858695652173913,-6.445652173913043,3.3260869565217392,-3.1262562425442035,2.8849372726604074,-0.24131896988379598,492.9177961251493,592.0153661984642
1.710400124035466E12,1.826086956521739,-6.532608695652174,3.4239130434782608,-3.1179622552349873,2.9186901949274775,-0.19927206030750996,492.932364694162,592.0367863222107
1.7104001240549978E12,1.8369565217391304,-6.543478260869565,3.4456521739130435,-3.1129858628494578,2.950928562990256,-0.1620572998592019,492.91765188189174,592.0543118780031
1.7104001240745295E12,1.8369565217391304,-6.521739130434782,3.3152173913043477,-3.0645201283121266,2.996220945861453,-0.06829918245067387,492.933013788821,592.1157595057201
1.7104001240940613E12,1.8695652173913042,-6.445652173913043,3.3260869565217392,-3.0221126105919613,3.0317047872191414,0.009592176627180175,492.8994051098115,592.1662446458632
1.7104001241135933E12,1.8478260869565217,-6.4021739130434785,3.358695652173913,-2.9490534006420854,3.0710110749019477,0.12195767425986223,492.8999820828417,592.160835523705
1.710400124133125E12,1.8695652173913042,-6.413043478260869,3.3369565217391304,-2.9287151013273123,3.0735353319091003,0.14482023058178792,492.9082760701509,592.1138122217432
1.7104001241526567E12,1.8804347826086956,-6.391304347826087,3.369565217391304,-3.0356714768018103,3.025862935288303,-0.009808541513507548,492.8965923662892,591.9937297098314
1.7104001241721885E12,1.9021739130434783,-6.413043478260869,3.3478260869565215,-3.1207028771284673,2.9743680923423876,-0.1463347847860795,492.9320762076469,591.9342293660915
1.7104001241917202E12,1.9021739130434783,-6.434782608695652,3.3369565217391304,-3.1833765725346295,2.941913359393282,-0.24146321314134755,492.94563507385675,591.8918218483713
1.710400124211252E12,1.9130434782608696,-6.423913043478261,3.3260869565217392,-3.2027051690465416,2.9045543556874223,-0.29815081335911914,492.9366198702598,591.8814363338275
1.7104001242307837E12,1.9130434782608696,-6.423913043478261,3.3260869565217392,-3.2210961843843684,2.9321769395085506,-0.2889192448758179,492.88728867617715,591.8759550900406
1.7104001242503154E12,1.9021739130434783,-6.467391304347826,3.2282608695652173,-3.231553820556858,2.9354224128034607,-0.29613140775339697,492.9022899749625,591.8830230096606
1.7104001242698472E12,1.9021739130434783,-6.4021739130434785,3.3260869565217392,-3.223259833247642,2.9400381970451117,-0.28322163620253044,492.88007651329957,591.8705459678824
1.710400124289379E12,1.891304347826087,-6.4021739130434785,3.1739130434782608,-3.2368908210862664,2.966651078063378,-0.2702397430228881,492.87863408072405,591.8804266310248
1.710400124308911E12,1.8369565217391304,-6.3478260869565215,3.293478260869565,-3.2381890104042306,2.9858354313177387,-0.252353579086492,492.87084494481627,591.8714835490565
1.7104001243284426E12,1.8695652173913042,-6.434782608695652,3.293478260869565,-3.2454011732818095,2.996293067490228,-0.24910810579158138,492.8814468242463,591.8656416971256
1.7104001243479744E12,1.8478260869565217,-6.423913043478261,3.2717391304347827,-3.2528297010457163,3.009491325556198,-0.24333837548951812,492.86709462011993,591.8580689261042
1.710400124367506E12,1.8804347826086956,-6.423913043478261,3.3043478260869565,-3.2433817676760874,3.009707690442525,-0.23367407723356215,492.8613970114466,591.8492700873936
1.7104001243870378E12,1.858695652173913,-6.445652173913043,3.3260869565217392,-3.257373363658591,2.999971270557794,-0.2574020931007973,492.8939959876533,591.8508567632266
1.7104001244065696E12,1.8804347826086956,-6.434782608695652,3.3260869565217392,-3.263575823733309,3.0045870547994444,-0.25898876893386474,492.8852692705714,591.8297251259953
1.7104001244261013E12,1.891304347826087,-6.4021739130434785,3.282608695652174,-3.2620612695290174,3.0097076904425255,-0.252353579086492,492.92601799082973,591.8258305580414
1.710400124445633E12,1.891304347826087,-6.380434782608695,3.2717391304347827,-3.274971041079884,3.0197325968423603,-0.2552384442375236,492.92233978776216,591.8174644491035
1.7104001244651648E12,1.9021739130434783,-6.380434782608695,3.25,-3.3036754493326486,3.0475715455498156,-0.2561039037828331,492.8942844741684,591.8207099223984
1.7104001244846968E12,1.9239130434782608,-6.4021739130434785,3.282608695652174,-3.2899723398652485,3.053918248882085,-0.23605409098316324,492.88541351382895,591.8167432328157
1.7104001245042285E12,1.9130434782608696,-6.391304347826087,3.3043478260869565,-3.274249824792126,3.0782232377795267,-0.19602658701259937,492.90394877242437,591.8132092730057
1.7104001245237603E12,1.858695652173913,-6.445652173913043,3.293478260869565,-3.253695160591026,3.148830312351026,-0.10486484823999981,492.8937075011382,591.8084492455065
1.710400124543292E12,1.8478260869565217,-6.423913043478261,3.282608695652174,-3.2357368750258537,3.1471715148891826,-0.08856536013667109,492.9061124212876,591.7981358525915
1.7104001245628237E12,1.858695652173913,-6.423913043478261,3.2391304347826084,-3.254272133621232,3.094378482625304,-0.15989365099592817,492.9162094493162,591.8004437447123
1.7104001245823555E12,1.8478260869565217,-6.413043478260869,3.282608695652174,-3.2926408401299527,3.0768529268327867,-0.21578791329716604,492.8787062023528,591.7996504067959
1.7104001246018872E12,1.858695652173913,-6.413043478260869,3.2717391304347827,-3.3002136111514107,3.063510425509265,-0.23670318564214538,492.8904620278433,591.801525569144
1.710400124621419E12,1.891304347826087,-6.423913043478261,3.260869565217391,-3.3081469903167475,3.065674074372539,-0.24247291594420864,492.8820959189053,591.8085213671352
1.7104001246409507E12,1.858695652173913,-6.445652173913043,3.282608695652174,-3.3168015857698427,3.0590388845251666,-0.25776270124467626,492.8791389321255,591.8173202058459
1.7104001246604824E12,1.8478260869565217,-6.5,3.293478260869565,-3.0551443165712735,3.344784777734849,0.28964046116357584,492.8814468242463,591.7449822121838
1.7104001246800144E12,1.9239130434782608,-6.5,3.3043478260869565,-2.7891597496461573,3.979166624446705,1.1900068748005481,492.9028669479927,591.2609018398407
1.7104001246995461E12,1.9021739130434783,-6.478260869565217,3.2065217391304346,-3.3165852208835154,3.0086979876396645,-0.30788723324385087,492.8910390008735,591.6211493755758
1.710400124719078E12,1.8695652173913042,-6.4021739130434785,3.3478260869565215,-3.2696340405504754,3.136064784057711,-0.13356925649276455,492.8897408115555,591.7905630815701
1.7104001247386096E12,1.826086956521739,-6.467391304347826,3.282608695652174,-3.269706162179251,3.1488303123510257,-0.12087584982822536,492.87409041811117,591.8388124512211
1.7104001247581414E12,1.9456521739130435,-6.4021739130434785,3.293478260869565,-3.246987849114877,3.145584839056115,-0.10140301005876184,492.8784177158377,591.8436446003491
1.710400124777673E12,1.9565217391304348,-6.326086956521739,3.2282608695652173,-3.237323550858921,3.1564752050012594,-0.08084834585766147,492.89435659579715,591.8484767494771
1.7104001247972048E12,1.8804347826086956,-6.391304347826087,3.1739130434782608,-3.209700967037793,3.166716476287422,-0.04298449075037131,492.85490606485683,591.8546792095517
1.7104001248167366E12,1.8695652173913042,-6.445652173913043,3.3369565217391304,-3.205590034197573,3.178039572005221,-0.02755046219235208,492.8543290918266,591.8828066447743
1.7104001248362683E12,1.9021739130434783,-6.467391304347826,3.358695652173913,-3.1754431933692926,3.2215289141570227,0.046085720787730315,492.8615412547042,591.9262959869261
1.7104001248558E12,1.9456521739130435,-6.478260869565217,3.3152173913043477,-3.1437096767079447,3.2481417951752896,0.10443211846734506,492.86521945777173,591.9754108161225
1.710400124875332E12,1.9130434782608696,-6.467391304347826,3.2391304347826084,-3.068558939523571,3.298771178575895,0.23021223905232419,492.85505030811436,592.0370026870969
1.7104001248948638E12,1.858695652173913,-6.4021739130434785,3.1956521739130435,-3.0296132599846435,3.33346168201705,0.3038484220324066,492.84646783429,592.0426281741414
1.7104001249143955E12,1.8804347826086956,-6.391304347826087,3.260869565217391,-3.031776908847917,3.3736334292451655,0.34185652039724834,492.8811583377312,591.958173746845
1.7104001249339272E12,1.8804347826086956,-6.413043478260869,3.2717391304347827,-3.1020233752755377,3.3397362637205443,0.23771288844500643,492.8284374270961,591.849774938795
1.710400124953459E12,1.9130434782608696,-6.4021739130434785,3.2717391304347827,-3.173856517536225,3.2746825545647806,0.10082603702855553,492.8486314831533,591.7894812571384
1.7104001249729907E12,1.9021739130434783,-6.423913043478261,3.260869565217391,-3.2637921886196364,3.2169852515441484,-0.04680693707548822,492.8707728231875,591.7400058197983
1.7104001249925225E12,1.891304347826087,-6.467391304347826,3.2391304347826084,-3.2917032589558675,3.209700967037793,-0.08200229191807412,492.88303350007936,591.7403664279421
1.7104001250120542E12,1.8804347826086956,-6.478260869565217,3.2717391304347827,-3.27554801411009,3.1961421008279443,-0.07940591328214566,492.90755485386313,591.7372651979048
1.710400125031586E12,1.8695652173913042,-6.510869565217391,3.1304347826086953,-3.281606230927257,3.206455493742883,-0.075150737184374,492.87661467511833,591.7264469535884
1.7104001250511177E12,1.9021739130434783,-6.391304347826087,3.358695652173913,-3.272518905701507,3.2226107385886595,-0.04990816711284723,492.87409041811117,591.7260863454445
1.7104001250706497E12,1.9021739130434783,-6.423913043478261,3.1956521739130435,-3.2559309310830753,3.2058785207126763,-0.05005241037039881,492.88339410822323,591.7219754126043
1.7104001250901814E12,1.8695652173913042,-6.358695652173913,3.184782608695652,-3.2723746624439554,3.2314095772993063,-0.040965085144649166,492.8864953382606,591.7149074929843
1.7104001251097131E12,1.826086956521739,-6.413043478260869,3.3369565217391304,-3.284707460964616,3.275764378996418,-0.008943081968198058,492.86752734989255,591.7064692624175
1.7104001251292449E12,1.8478260869565217,-6.478260869565217,3.282608695652174,-3.2792262171776554,3.264946134680049,-0.014280082497606577,492.8897408115555,591.7117341413182
1.7104001251487766E12,1.891304347826087,-6.489130434782608,3.282608695652174,-3.2694897972929238,3.2571569987722637,-0.012332798520660226,492.9023620965913,591.7128159657498
1.7104001251683083E12,1.9239130434782608,-6.445652173913043,3.2717391304347827,-3.2814619876697053,3.2714370812698705,-0.01002490639983492,492.9133245841652,591.7004831672291
1.71040012518784E12,1.8695652173913042,-6.445652173913043,3.260869565217391,-3.2852123123660464,3.27230254081518,-0.01290977155086655,492.91440640859685,591.7028631809787
1.7104001252073718E12,1.858695652173913,-6.4021739130434785,3.2065217391304346,-3.282904420245221,3.2751874059662116,-0.007717014279009614,492.9064730294315,591.699545586055
1.7104001252269036E12,1.8369565217391304,-6.391304347826087,3.25,-3.2849238258509432,3.26458552653617,-0.020338299314773003,492.88512502731385,591.7012765051456
1.7104001252464355E12,1.858695652173913,-6.413043478260869,3.25,-3.2814619876697053,3.2821110823286874,6.490946589821172E-4,492.9056075698862,591.6907467473444
1.7104001252659673E12,1.8695652173913042,-6.413043478260869,3.282608695652174,-3.2725910273302827,3.2803080416092922,0.007717014279009614,492.8970250960619,591.6772600027633
1.710400125285499E12,1.8804347826086956,-6.434782608695652,3.293478260869565,-3.2865105016840106,3.310238517551246,0.02372801586723517,492.8939959876533,591.674807867385
1.7104001253050308E12,1.858695652173913,-6.423913043478261,3.260869565217391,-3.2914147724407643,3.3224270728143543,0.03101230037359004,492.9059681780301,591.6550465411003
1.7104001253245625E12,1.858695652173913,-6.423913043478261,3.2282608695652173,-3.289828096607697,3.322138586299251,0.03231048969155427,492.89082263598715,591.6659369070455
1.7104001253440942E12,1.826086956521739,-6.4021739130434785,3.293478260869565,-3.2719419326713006,3.3754364699645603,0.10349453729325979,492.8937075011382,591.6337706606115
1.710400125363626E12,1.8804347826086956,-6.456521739130435,3.282608695652174,-3.24179509184302,3.4202961230631024,0.1785010312200822,492.893130528108,591.6479064998516
1.7104001253831577E12,1.9021739130434783,-6.467391304347826,3.282608695652174,-3.2109270347269816,3.4359465165074488,0.22501948178046727,492.8978905556072,591.6303809440591
1.7104001254026895E12,1.9130434782608696,-6.413043478260869,3.293478260869565,-3.236674456199939,3.4260658533651656,0.1893913971652266,492.8677437147789,591.6290106331123
1.7104001254222212E12,1.8804347826086956,-6.413043478260869,3.3152173913043477,-3.2754037708525385,3.3585600088310255,0.08315623797848679,492.8761098237169,591.6258372814461
1.7104001254417532E12,1.9130434782608696,-6.423913043478261,3.293478260869565,-3.2869432314566653,3.357333941141837,0.0703907096851718,492.8857741219729,591.612350536865
1.710400125461285E12,1.9456521739130435,-6.423913043478261,3.3152173913043477,-3.29422751596302,3.36447398239064,0.07024646642762022,492.8621903493632,591.619779064629
1.7104001254808167E12,1.934782608695652,-6.413043478260869,3.2717391304347827,-3.275980743882745,3.3258889109955923,0.04990816711284723,492.85267029436477,591.646464067276
1.7104001255003484E12,1.9239130434782608,-6.434782608695652,3.3260869565217392,-2.9920378913924566,3.6572156735915753,0.6651777821991185,492.87055645830117,591.5701593840313
1.7104001255198801E12,1.9239130434782608,-6.445652173913043,3.3152173913043477,-2.803295588886212,4.225173500200928,1.4218779113147153,492.86529157940055,591.1844529133383
1.7104001255394119E12,1.9456521739130435,-6.434782608695652,3.282608695652174,-3.2398478078660737,3.3578387925432676,0.11799098467719372,492.85656486231863,591.3611509038391
1.7104001255589436E12,1.8804347826086956,-6.369565217391304,3.3478260869565215,-3.2461223895695674,3.4177718660559497,0.17164947648638207,492.8749558776565,591.633626417354
1.7104001255784753E12,1.934782608695652,-6.358695652173913,3.260869565217391,-3.242155699986899,3.443014436127476,0.20085873614057734,492.88043712144344,591.6508634866314
1.710400125598007E12,1.891304347826087,-6.391304347826087,3.3043478260869565,-3.2494399844932538,3.454842383246706,0.20540239875345218,492.92233978776216,591.674158772726
1.7104001256175388E12,1.9782608695652173,-6.358695652173913,3.25,-3.260113985552071,3.499052941686266,0.23893895613419489,492.90308331287906,591.6815873004898
1.7104001256370708E12,1.9130434782608696,-6.467391304347826,3.3152173913043477,-3.2298950230950147,3.5044620638444504,0.27456704074943555,492.9180124900356,591.703440154009
1.7104001256566025E12,1.9239130434782608,-6.554347826086956,3.3152173913043477,-3.225423482110916,3.5416047026639825,0.3161812205530668,492.90719424571927,591.7215426828317
1.7104001256761343E12,1.9130434782608696,-6.478260869565217,3.3043478260869565,-3.211792494272291,3.5643230157283563,0.3525305214560654,492.89551054185756,591.7514010371448
1.710400125695666E12,1.9456521739130435,-6.423913043478261,3.2282608695652173,-3.154888529168192,3.603052330380956,0.44816380121276395,492.90957425946885,591.8098195564532
1.7104001257151978E12,1.9456521739130435,-6.380434782608695,3.2717391304347827,-3.1092355381531167,3.6285112653388105,0.5192757271856937,492.9115936650746,591.8393173026225
1.7104001257347295E12,1.891304347826087,-6.380434782608695,3.3152173913043477,-3.040936355702443,3.6970989343045875,0.6561625786021446,492.88187955401895,591.8706180895113
1.7104001257542612E12,1.9456521739130435,-6.380434782608695,3.3043478260869565,-3.0165592451762255,3.725947585814904,0.7093883406386782,492.8829613784506,591.8242438822084
1.710400125773793E12,1.9456521739130435,-6.4021739130434785,3.3260869565217392,-3.1124810114480272,3.714047517066898,0.6015665056188709,492.89709721769066,591.6949298018134
1.7104001257933247E12,1.967391304347826,-6.423913043478261,3.293478260869565,-3.2068161018867616,3.666591485332428,0.45977538344566626,492.8942123525396,591.6308857954605
1.7104001258128567E12,1.934782608695652,-6.380434782608695,3.3260869565217392,-3.2943717592205717,3.6253379136726758,0.3309661544521039,492.9076269754919,591.5747030466441
1.7104001258323884E12,1.9021739130434783,-6.4021739130434785,3.3043478260869565,-3.299348151606101,3.6039177899262658,0.3045696383201645,492.91296397602133,591.5770830603938
1.7104001258519202E12,1.9130434782608696,-6.391304347826087,3.260869565217391,-3.3044687872491822,3.609038425569347,0.3045696383201645,492.89154385227494,591.5628029778961
1.710400125871452E12,1.934782608695652,-6.391304347826087,3.25,-3.3038196925902,3.6142311828412037,0.31041149025100356,492.90221785333375,591.5628029778961
1.7104001258909836E12,1.934782608695652,-6.3478260869565215,3.293478260869565,-3.3074978956577654,3.6238954810971595,0.31639758543939417,492.91281973276375,591.5534271661553
1.7104001259105154E12,1.9782608695652173,-6.33695652173913,3.152173913043478,-3.3036033277038728,3.6174045345073385,0.31380120680346574,492.91080032715803,591.5646060186156
1.710400125930047E12,1.8804347826086956,-6.358695652173913,3.391304347826087,-3.3067766793700075,3.637237982420681,0.3304613030506734,492.9234216121938,591.5483065305121
1.7104001259495789E12,1.934782608695652,-6.434782608695652,3.3804347826086953,-3.3081469903167475,3.654475051698095,0.34632806138134736,492.9159209628011,591.558980531571
1.7104001259691106E12,1.934782608695652,-6.423913043478261,3.3478260869565215,-3.3088682066045054,3.6593793224548485,0.3505111158503432,492.90943001621133,591.5385701106275
1.7104001259886423E12,1.9239130434782608,-6.456521739130435,3.3152173913043477,-3.312618531300847,3.66175933620445,0.3491408049036032,492.90416513731066,591.5261651904781
1.7104001260081743E12,1.8804347826086956,-6.456521739130435,3.282608695652174,-3.3137724773612596,3.6598120522275037,0.3460395748662442,492.89385174439576,591.5252997309327
1.710400126027706E12,1.891304347826087,-6.380434782608695,3.293478260869565,-3.3248070865639554,3.6652932960144637,0.34048620945050834,492.89652024466045,591.5164287705933
1.7104001260472378E12,1.9021739130434783,-6.413043478260869,3.358695652173913,-3.329422870805606,3.674452742868989,0.34502987206338315,492.8879377708361,591.5069808372236
1.7104001260667695E12,1.891304347826087,-6.434782608695652,3.3043478260869565,-3.3349762362213418,3.6756788105581775,0.3407025743368357,492.91289185439257,591.4985426066569
1.7104001260863013E12,1.8804347826086956,-6.391304347826087,3.358695652173913,-3.3530787650440654,3.7080614218785075,0.35498265683444225,492.9061845429164,591.5011389852929
1.710400126105833E12,1.8695652173913042,-6.413043478260869,3.369565217391304,-3.353295129930393,3.693132244721919,0.3398371147915262,492.9279652748067,591.4839740376442
1.7104001261253647E12,1.891304347826087,-6.413043478260869,3.260869565217391,-3.3486072240599665,3.697964393849897,0.3493571697899306,492.9157045979148,591.4908255923779
1.7104001261448965E12,1.9130434782608696,-6.4021739130434785,3.3369565217391304,-3.356324238338976,3.745131939069264,0.38880770073028814,492.9445532494251,591.4909698356355
1.7104001261644282E12,1.9130434782608696,-6.423913043478261,3.369565217391304,-3.3377889797435976,3.774124833837132,0.43633585409353426,492.92630647734484,591.4899601328326
1.71040012618396E12,1.891304347826087,-6.445652173913043,3.3804347826086953,-3.304180300734079,3.799872255310089,0.4956919545760101,492.95032297972716,591.4592363189741
1.710400126203492E12,1.9021739130434783,-6.413043478260869,3.358695652173913,-3.3346877497062386,3.7561665482719597,0.42147879856572135,492.9660454948003,591.4581544945424
1.7104001262230237E12,1.8804347826086956,-6.4021739130434785,3.358695652173913,-3.371758266896995,3.710946287029539,0.33918802013254407,492.965180035255,591.4520241560965
1.7104001262425554E12,1.9130434782608696,-6.4021739130434785,3.3152173913043477,-3.3744988887904754,3.707628692105853,0.33312980331537767,492.9946056597955,591.457649643141
1.7104001262620872E12,1.9456521739130435,-6.391304347826087,3.3043478260869565,-3.3909426201513555,3.710369313999333,0.3194266938479774,492.96200668358887,591.4520962777253
1.710400126281619E12,1.9021739130434783,-6.434782608695652,3.3260869565217392,-3.4032754186720156,3.6542586868117675,0.25098326813975197,492.9351053160555,591.5166451354796
1.7104001263011506E12,1.934782608695652,-6.434782608695652,3.358695652173913,-3.2333568612762527,3.837231259015949,0.6038743977396963,492.9359707756008,591.5590526531998
1.7104001263206824E12,1.934782608695652,-6.456521739130435,3.369565217391304,-2.972060200221563,4.535224382308052,1.5631641820864897,492.95529937211273,591.0197271132145
1.710400126340214E12,1.9456521739130435,-6.434782608695652,3.25,-3.402049350982827,3.6538259570391127,0.25177660605628566,492.9568860479458,591.2264277012858
1.7104001263597458E12,1.891304347826087,-6.358695652173913,3.3804347826086953,-3.3861825926521534,3.766479941186898,0.38029734853474484,492.96323275127804,591.4955856198771
1.7104001263792778E12,1.891304347826087,-6.434782608695652,3.3369565217391304,-3.364834590534519,3.759339899938095,0.3945053094035756,492.9641703324521,591.5121014728668
1.7104001263988096E12,1.9456521739130435,-6.369565217391304,3.260869565217391,-3.3609400225806265,3.7843661051232944,0.4234260825426677,492.9501066148409,591.5258045823341
1.7104001264183413E12,1.9565217391304348,-6.3478260869565215,3.293478260869565,-3.3557472653087697,3.7974201199317124,0.4416728546229428,492.9299846804124,591.5324397721815
1.710400126437873E12,1.934782608695652,-6.434782608695652,3.217391304347826,-3.3423326423564723,3.804343796294188,0.4620111539377158,492.9232773689363,591.5397961783167
1.7104001264574048E12,1.891304347826087,-6.478260869565217,3.3369565217391304,-3.3169458290273943,3.831822136857765,0.5148763078303704,492.94296657359206,591.5743424385003
1.7104001264769365E12,1.9130434782608696,-6.5,3.3152173913043477,-3.281173501154602,3.8355003399253302,0.554326838770728,492.9370526000324,591.5899928319446
1.7104001264964683E12,1.934782608695652,-6.456521739130435,3.25,-3.2330683747611495,3.88519214215185,0.6521237673907003,492.94664477665964,591.6629799202657
1.710400126516E12,1.9456521739130435,-6.423913043478261,3.260869565217391,-3.1840977888223874,3.910867441996031,0.7267696531736437,492.95674180468825,591.7015649916608
1.7104001265355317E12,1.9130434782608696,-6.369565217391304,3.25,-3.1276986751197193,3.9598380279347936,0.8321393528150741,492.9522702637041,591.6999783158277
1.7104001265550635E12,1.9239130434782608,-6.358695652173913,3.2282608695652173,-3.119044079666624,3.9751999348640368,0.8561558551974124,492.9964087005149,591.658075649509
1.7104001265745955E12,1.9239130434782608,-6.413043478260869,3.2717391304347827,-3.178111693633997,3.9521931352845594,0.7740814416505626,492.9694352113528,591.5688611947133
1.7104001265941272E12,1.9239130434782608,-6.413043478260869,3.3043478260869565,-3.3227876809582333,3.8805042362814235,0.5577165553231902,492.9786667798361,591.4717133607523
1.710400126613659E12,1.9130434782608696,-6.434782608695652,3.3043478260869565,-3.376662537653749,3.8305239475398007,0.45386140988605145,492.9541454260523,591.4409895468938
1.7104001266331907E12,1.9782608695652173,-6.445652173913043,3.282608695652174,-3.4141657846171602,3.8208596492838445,0.4066938646666843,492.9070500024617,591.4169009228827
1.7104001266527224E12,1.9239130434782608,-6.456521739130435,3.282608695652174,-3.4076027163985634,3.7933091870914923,0.3857064706929291,492.91354094905154,591.4088233004599
1.7104001266722542E12,1.9239130434782608,-6.467391304347826,3.2391304347826084,-3.4144542711322634,3.7943188898943534,0.3798646187620901,492.91260336787747,591.3867540820544
1.710400126691786E12,1.9021739130434783,-6.423913043478261,3.3478260869565215,-3.4333501378715203,3.8101135265962514,0.3767633887247311,492.9166421790889,591.3658388097094
1.7104001267113176E12,1.9565217391304348,-6.4021739130434785,3.1630434782608696,-3.432051948553556,3.820138432996086,0.38808648444253024,492.8994051098115,591.3678582153152
1.7104001267308494E12,1.891304347826087,-6.3478260869565215,3.3260869565217392,-3.4282295022284393,3.817469932731382,0.3892404305029429,492.9160652060587,591.3629539445584
1.710400126750381E12,1.9456521739130435,-6.456521739130435,3.293478260869565,-3.4335665027578477,3.8254033118967192,0.39183680913887137,492.9291192208671,591.3694448911482
1.710400126769913E12,1.9565217391304348,-6.445652173913043,3.3152173913043477,-3.4205124879494297,3.8298027312520424,0.4092902433026127,492.92890285598077,591.3523520651283
1.7104001267894448E12,1.934782608695652,-6.467391304347826,3.3369565217391304,-3.427291921054354,3.833408812690832,0.4061168916364779,492.8832498649657,591.371464296754
1.7104001268089766E12,1.934782608695652,-6.456521739130435,3.282608695652174,-3.4298161780615066,3.835716704811657,0.40590052675015054,492.884115324511,591.3667042692548
1.7104001268285083E12,1.9565217391304348,-6.445652173913043,3.260869565217391,-3.430393151091713,3.8212202574277234,0.3908271063360103,492.88014863492833,591.3617278768693
1.71040012684804E12,1.9456521739130435,-6.423913043478261,3.3043478260869565,-3.4383265302570503,3.823383906290997,0.385057376033947,492.90308331287906,591.3563187547111
1.7104001268675718E12,1.934782608695652,-6.4021739130434785,3.260869565217391,-3.441572003551961,3.831533650342662,0.3899616467907008,492.89861177189493,591.3543714707341
1.7104001268871035E12,1.967391304347826,-6.391304347826087,3.282608695652174,-3.4365234895376555,3.825980284926926,0.38945679538927025,492.88570200034405,591.3292731439201
1.7104001269066353E12,1.934782608695652,-6.391304347826087,3.2391304347826084,-3.447702341997903,3.8401882457957566,0.3924859037978535,492.90986274598396,591.3348265093358
1.710400126926167E12,1.9239130434782608,-6.413043478260869,3.2391304347826084,-3.4467647608238177,3.837663988788604,0.3908992279647861,492.904381502197,591.3451399022508
1.710400126945699E12,1.934782608695652,-6.413043478260869,3.25,-3.4447453552180956,3.841702800000048,0.3969574447819525,492.91260336787747,591.3329513469877
1.7104001269652307E12,1.967391304347826,-6.434782608695652,3.293478260869565,-3.444312625445441,3.844876151666183,0.40056352622074204,492.92089735518664,591.326099792254
1.7104001269847625E12,1.934782608695652,-6.467391304347826,3.260869565217391,-3.4515969099517956,3.8564156122703093,0.4048187023185137,492.9240707068528,591.3214840080124
1.7104001270042942E12,1.9565217391304348,-6.456521739130435,3.282608695652174,-3.436739854423983,3.855838639240103,0.4190987848161203,492.9350331944267,591.3121081962715
1.710400127023826E12,1.934782608695652,-6.434782608695652,3.2391304347826084,-3.433782867644175,3.860670788368081,0.4268879207239057,492.9353938025706,591.3154257911951
1.7104001270433577E12,1.9456521739130435,-6.423913043478261,3.2282608695652173,-3.430393151091713,3.936037890438782,0.5056447393470692,492.9198876523838,591.3126851693017
1.7104001270628894E12,1.9456521739130435,-6.434782608695652,3.3043478260869565,-3.38589410613705,3.9452694589220836,0.5593753527850334,492.9106560839005,591.2945105188502
1.7104001270824211E12,1.9456521739130435,-6.445652173913043,3.293478260869565,-3.3667097528826897,3.9704399073648347,0.6037301544821447,492.9272440585189,591.2869377478287
1.710400127101953E12,1.934782608695652,-6.423913043478261,3.3043478260869565,-3.397938418142607,3.9221184160850546,0.5241799979424474,492.95190965556026,591.2947990053653
1.7104001271214846E12,1.9130434782608696,-6.413043478260869,3.260869565217391,-3.4332780162427445,3.876753911585082,0.44347589534233756,492.9248640447693,591.292635356502
1.7104001271410166E12,1.9456521739130435,-6.391304347826087,3.184782608695652,-3.433854989272951,3.87747512787284,0.44362013859988914,492.92933558575345,591.2919141402143
1.7104001271605483E12,1.9565217391304348,-6.413043478260869,3.260869565217391,-3.4318355836672287,3.8761769385548757,0.44434135488764703,492.90971850272643,591.29393354582
1.71040012718008E12,1.9021739130434783,-6.456521739130435,3.25,-3.4378938004843955,3.819994189738535,0.3821003892541396,492.91368519230906,591.3726903644432
1.7104001271996118E12,1.9239130434782608,-6.467391304347826,3.2282608695652173,-3.202921533932869,4.105090988289236,0.902169454356367,492.91981553075505,591.2810958958979
1.7104001272191436E12,1.9456521739130435,-6.445652173913043,3.282608695652174,-3.0462012346030756,4.553687519274654,1.507486284671579,492.92147432821685,590.8378363654418
1.7104001272386753E12,1.967391304347826,-6.445652173913043,3.141304347826087,-3.4304652727204887,3.8042716746654124,0.37380640194492365,492.9099348676127,591.1250968128559
1.710400127258207E12,1.8369565217391304,-6.413043478260869,3.3804347826086953,-3.3872644170837902,3.933008782030199,0.5457443649464089,492.9082039485221,591.3261719138827
1.7104001272777388E12,1.8804347826086956,-6.467391304347826,3.217391304347826,-3.383946822160104,3.925436011008741,0.5414891888486373,492.928830734352,591.3460774834249
1.7104001272972705E12,1.9021739130434783,-6.358695652173913,3.3369565217391304,-3.3854613763643955,3.956087703238452,0.5706263268740567,492.9022899749625,591.3677860936864
1.7104001273168022E12,1.9021739130434783,-6.4021739130434785,3.1956521739130435,-3.3685127936020844,3.950894945966595,0.5823821523645106,492.8978905556072,591.3654782015656
1.7104001273363342E12,1.8478260869565217,-6.423913043478261,3.25,-3.366926117769017,3.981618759825082,0.6146926420560649,492.909213651325,591.3840855817897
1.710400127355866E12,1.9130434782608696,-6.445652173913043,3.358695652173913,-3.3596418332626623,4.018905641902166,0.6592638086395036,492.9124591246199,591.4178385040568
1.7104001273753977E12,1.967391304347826,-6.434782608695652,3.2282608695652173,-3.3250955730790586,4.033113602770997,0.7080180296919382,492.916281570945,591.4382489250004
1.7104001273949294E12,1.9782608695652173,-6.423913043478261,3.282608695652174,-3.277278933200709,4.082084188709759,0.8048052555090495,492.92032038215643,591.5009947420352
1.7104001274144612E12,1.934782608695652,-6.434782608695652,3.217391304347826,-3.2361696047985085,4.110788596962523,0.874618992164015,492.9139015571954,591.5299876368032
1.710400127433993E12,1.9130434782608696,-6.434782608695652,3.25,-3.167365570946404,4.146128195062661,0.9787626241162568,492.92378222033767,591.5438349895281
1.7104001274535247E12,1.9239130434782608,-6.380434782608695,3.25,-3.1720534768168305,4.167836805324174,0.9957833285073434,492.92183493636077,591.481449780637
1.7104001274730564E12,1.9565217391304348,-6.380434782608695,3.25,-3.212802197075152,4.125789895747888,0.9129876986727355,492.92572950431463,591.3860328657667
1.7104001274925881E12,1.967391304347826,-6.369565217391304,3.2391304347826084,-3.361156387466954,4.058644659357626,0.6974882718906728,492.9079875836358,591.289750491351
1.71040012751212E12,1.9565217391304348,-6.413043478260869,3.2717391304347827,-3.418781568858811,4.019122006788494,0.6003404379296825,492.9014245154172,591.2504442036682
1.7104001275316519E12,1.9456521739130435,-6.456521739130435,3.260869565217391,-3.443879895672786,3.981618759825082,0.5377388641522961,492.91382943556664,591.2350101751101
1.7104001275511836E12,1.9565217391304348,-6.467391304347826,3.260869565217391,-3.4489284096870914,3.9731805292583147,0.5242521195712232,492.9023620965913,591.2448908382524
1.7104001275707153E12,1.9021739130434783,-6.521739130434782,3.1630434782608696,-3.4540490453301724,3.9739017455460726,0.5198527002159,492.9097906243552,591.2369574590871
1.710400127590247E12,1.8804347826086956,-6.423913043478261,3.3152173913043477,-3.4581599781703924,3.9860181791804052,0.5278582010100128,492.90221785333375,591.2285192285203
1.7104001276097788E12,1.9130434782608696,-6.423913043478261,3.1956521739130435,-3.4691945873730887,4.017030479553996,0.5478358921809068,492.90813182689334,591.2319089450729
1.7104001276293105E12,1.9021739130434783,-6.380434782608695,3.25,-3.463424857071025,4.013929249516636,0.5505043924456111,492.90531908337107,591.223470714506
1.7104001276488423E12,1.9130434782608696,-6.413043478260869,3.2717391304347827,-3.450731450406486,4.009818316676416,0.5590868662699302,492.9347447079116,591.2091185103797
1.710400127668374E12,1.9239130434782608,-6.434782608695652,3.25,-3.4544096534740514,4.025540831749539,0.5711311782754872,492.9286864910944,591.2039978747366
1.7104001276879058E12,1.9239130434782608,-6.467391304347826,3.260869565217391,-3.4461877877936113,4.0160928983799105,0.5699051105862988,492.95501088559763,591.213517929735
1.7104001277074377E12,1.934782608695652,-6.467391304347826,3.25,-3.4702764118047256,4.033329967657324,0.5630535558525986,492.9185894630658,591.2031324151912
1.7104001277269695E12,1.9021739130434783,-6.456521739130435,3.260869565217391,-3.474964317675152,4.043138509170832,0.5681741914956798,492.94094716798634,591.201617860987
1.7104001277465012E12,1.9021739130434783,-6.434782608695652,3.25,-3.4857104403627446,4.041696076595316,0.5559856362325712,492.9090694080674,591.2055124289409
1.710400127766033E12,1.9130434782608696,-6.391304347826087,3.2717391304347827,-3.4904704678619467,4.035060886747943,0.5445904188859962,492.92392646359525,591.1839480619369
1.7104001277855647E12,1.9130434782608696,-6.391304347826087,3.25,-3.487585602710915,4.035854224664477,0.5482686219535616,492.91253124624865,591.1864723189441
1.7104001278050964E12,1.934782608695652,-6.423913043478261,3.25,-3.482464967067834,4.033185724399773,0.5507207573319385,492.9245755582542,591.1770965072033
1.7104001278246282E12,1.9239130434782608,-6.413043478260869,3.2717391304347827,-3.4932110897554267,4.0455906445492085,0.5523795547937816,492.92233978776216,591.1739231555371
1.71040012784416E12,1.9565217391304348,-6.423913043478261,3.282608695652174,-3.5092220913436525,4.069679268560323,0.5604571772166702,492.9029390696215,591.1817844130736
1.7104001278636917E12,1.9239130434782608,-6.434782608695652,3.25,-3.510376037404065,4.065640457348878,0.5552644199448132,492.90358816428045,591.1743558853098
1.7104001278832234E12,1.9130434782608696,-6.423913043478261,3.260869565217391,-3.5132609025550967,4.071770795794821,0.5585098932397239,492.9172912737479,591.1783225748924
1.7104001279027554E12,1.891304347826087,-6.391304347826087,3.282608695652174,-3.5068420775940514,4.076891431437902,0.5700493538438504,492.90185724518983,591.1808468318995
1.710400127922287E12,1.9021739130434783,-6.413043478260869,3.2717391304347827,-3.5072026857379304,4.085618148519773,0.5784154627818421,492.8906062711008,591.1726970878478
1.7104001279418188E12,1.9130434782608696,-6.413043478260869,3.25,-3.514486970244285,4.152114290251052,0.6376273200067664,492.91137730018824,591.1788274262939
1.7104001279613506E12,1.9239130434782608,-6.434782608695652,3.2717391304347827,-3.4929226032403236,4.170216819073775,0.6772942158334513,492.9348168295404,591.1601479244409
1.7104001279808823E12,1.9130434782608696,-6.423913043478261,3.293478260869565,-3.463424857071025,4.189689658843238,0.7262648017722132,492.92306100404994,591.1481036124353
1.710400128000414E12,1.891304347826087,-6.434782608695652,3.282608695652174,-3.5110251320630472,4.1576676556667875,0.6466425236037402,492.9251525312844,591.1645473437962
1.7104001280199458E12,1.8695652173913042,-6.423913043478261,3.293478260869565,-3.545571392246651,4.1269438418083,0.5813724495616496,492.9046699887121,591.1624558165618
1.7104001280394775E12,1.8695652173913042,-6.434782608695652,3.260869565217391,-3.5398737835733636,4.104802501774133,0.5649287182007693,493.0485526381198,591.1512769641015
1.7104001280590093E12,1.891304347826087,-6.391304347826087,3.2391304347826084,-3.5681454620534736,4.133795396542001,0.5656499344885272,492.90337179939417,591.1501951396698
1.7104001280785413E12,1.8804347826086956,-6.445652173913043,3.2282608695652173,-3.5816322066345463,4.0733574716278875,0.4917252649933416,492.8933468929943,591.2228937414758
1.710400128098073E12,1.9021739130434783,-6.434782608695652,3.293478260869565,-3.341106574667284,4.332634727076856,0.9915281524095718,492.9004148126143,591.1722643580753
1.7104001281176047E12,1.9239130434782608,-6.445652173913043,3.3043478260869565,-3.174649855452759,4.840731601802302,1.666081746349543,492.9004148126143,590.7036180142901
1.7104001281371365E12,1.967391304347826,-6.445652173913043,3.2065217391304346,-3.5897819506862105,4.075521120491161,0.48573916980495097,492.90726636734803,590.9586400936413
1.7104001281566682E12,1.8478260869565217,-6.423913043478261,3.402173913043478,-3.5330222288396635,4.19704606497837,0.6640238361387057,492.92659496385994,591.1815680481873
1.7104001281762E12,1.9239130434782608,-6.478260869565217,3.2065217391304346,-3.527180376908824,4.188247226267722,0.6610668493588984,492.9282537613218,591.1956317657986
1.7104001281957317E12,1.934782608695652,-6.358695652173913,3.3152173913043477,-3.5364119453921257,4.219115283383761,0.6827033379916356,492.953929061166,591.2259949715132
1.7104001282152634E12,1.9456521739130435,-6.380434782608695,3.2065217391304346,-3.532805863953336,4.245656042773252,0.7128501788199162,492.96907460320887,591.225417998483
1.7104001282347952E12,1.9130434782608696,-6.467391304347826,3.260869565217391,-3.5232858089549315,4.256113678945741,0.7328278699908102,492.94743811457613,591.231836823444
1.710400128254327E12,1.8804347826086956,-6.510869565217391,3.391304347826087,-3.518381538198178,4.294049655681808,0.77566811748363,492.94505810082654,591.2605412316968
1.710400128273859E12,1.934782608695652,-6.489130434782608,3.2282608695652173,-3.4733055202133087,4.300612723900405,0.8273072036870961,492.9411635328727,591.296818410971
1.7104001282933906E12,1.9239130434782608,-6.413043478260869,3.282608695652174,-3.419430663517793,4.337178389689731,0.9177477261719378,492.9428223303345,591.366632147626
1.7104001283129224E12,1.9239130434782608,-6.391304347826087,3.2717391304347827,-3.3664212663675865,4.355425161770006,0.9890038954024191,492.95558785862784,591.4009620429233
1.710400128332454E12,1.8695652173913042,-6.380434782608695,3.293478260869565,-3.3036754493326486,4.411968518730226,1.108293069397577,492.963881845937,591.4181269905719
1.7104001283519858E12,1.9130434782608696,-6.380434782608695,3.282608695652174,-3.306993044256335,4.430215290810501,1.1232222465541657,492.93243681579077,591.3510538758104
1.7104001283715176E12,1.9130434782608696,-6.434782608695652,3.2717391304347827,-3.3967123504534187,4.38412957002277,0.9874172195693517,492.9479429659776,591.2140949027652
1.7104001283910493E12,1.934782608695652,-6.434782608695652,3.282608695652174,-3.4926341167252204,4.317633428291491,0.8249993115662708,492.9666945894593,591.1532242480785
1.710400128410581E12,1.9456521739130435,-6.413043478260869,3.293478260869565,-3.551773852321369,4.278831992010116,0.727058139688747,492.96027576449825,591.1170913120618
1.7104001284301128E12,1.9130434782608696,-6.445652173913043,3.3043478260869565,-3.5833631257251652,4.25647428708962,0.6731111613644555,492.93171559950304,591.0989887832391
1.7104001284496445E12,1.9456521739130435,-6.445652173913043,3.3043478260869565,-3.5950468295868436,4.268085869322523,0.6730390397356797,492.9353938025706,591.095166336914
1.7104001284691765E12,1.9239130434782608,-6.489130434782608,3.2282608695652173,-3.6029080871234047,4.284313235797076,0.6814051486736714,492.94837569575026,591.0843480925976
1.7104001284887083E12,1.9130434782608696,-6.4021739130434785,3.369565217391304,-3.6040620331838173,4.27464893754112,0.6705869043573027,492.93669199188855,591.0906947959298
1.71040012850824E12,1.9782608695652173,-6.413043478260869,3.2391304347826084,-3.5933880321250005,4.284962330456058,0.6915742983310579,492.9049584752272,591.0937960259672
1.7104001285277717E12,1.8804347826086956,-6.391304347826087,3.369565217391304,-3.59064741023152,4.304867899998176,0.7142204897666562,492.89767419072086,591.0808862544163
1.7104001285473035E12,1.9239130434782608,-6.445652173913043,3.3260869565217392,-3.590286802087641,4.30342546742266,0.7131386653350194,492.89320264973674,591.0816795923329
1.7104001285668352E12,1.934782608695652,-6.456521739130435,3.3804347826086953,-3.590358923716417,4.330975929615012,0.7406170058985956,492.90813182689334,591.0772801729776
1.710400128586367E12,1.9130434782608696,-6.456521739130435,3.3260869565217392,-3.589637707428659,4.326504388630913,0.7368666812022545,492.9809025503281,591.0684813342668
1.7104001286058987E12,1.9021739130434783,-6.423913043478261,3.3152173913043477,-3.596633505419911,4.338837187151574,0.742203681731663,492.8930584064792,591.0541291301405
1.7104001286254304E12,1.9021739130434783,-6.413043478260869,3.2717391304347827,-3.599662613828494,4.336457173401973,0.7367945595734787,492.905679691515,591.0525424543074
1.7104001286449624E12,1.891304347826087,-6.380434782608695,3.3369565217391304,-3.6174045345073385,4.3544875805959204,0.7370830460885819,492.8965923662892,591.048503643096
1.7104001286644941E12,1.9130434782608696,-6.380434782608695,3.3369565217391304,-3.61343784492467,4.361267013700845,0.7478291687761747,492.8986838935237,591.037252669007
1.710400128684026E12,1.9239130434782608,-6.423913043478261,3.293478260869565,-3.6026196006083016,4.35261241824775,0.7499928176394484,492.92306100404994,591.0261459381754
1.7104001287035576E12,1.9239130434782608,-6.445652173913043,3.358695652173913,-3.6088941823117953,4.366892500745356,0.7579983184335612,492.92861436946566,591.0163373966619
1.7104001287230894E12,1.934782608695652,-6.434782608695652,3.3043478260869565,-3.621731832233886,4.3640797572231005,0.7423479249892145,492.94635629014454,591.0061682470046
1.710400128742621E12,1.9021739130434783,-6.4021739130434785,3.2282608695652173,-3.621731832233886,4.369849487525164,0.7481176552912778,492.92962407226855,591.0054470307168
1.7104001287621528E12,1.9021739130434783,-6.4021739130434785,3.3478260869565215,-3.613798453068549,4.367541595404338,0.7537431423357895,492.93856715423675,590.9892196642422
1.7104001287816846E12,1.891304347826087,-6.489130434782608,3.3152173913043477,-3.6125002637505848,4.3503766477557,0.7378763840051156,492.9281095180642,590.991239069848
1.7104001288012163E12,1.9130434782608696,-6.489130434782608,3.3369565217391304,-3.6166833182195806,4.37727801528907,0.7605946970694897,492.94325506010716,590.9848202448869
1.710400128820748E12,1.9239130434782608,-6.5,3.4130434782608696,-3.6101923716297595,4.427907398689675,0.8177150270599159,492.9269555720038,590.9892196642422
1.71040012884028E12,1.9130434782608696,-6.521739130434782,3.4130434782608696,-3.5784588549684115,4.445072346338313,0.8666134913699021,492.95313572324943,590.9598661613305
1.7104001288598118E12,1.9021739130434783,-6.510869565217391,3.25,-3.554802960729952,4.465266402395535,0.9104634416655829,492.9714546169585,590.9444321327725
1.7104001288793435E12,1.9130434782608696,-6.434782608695652,3.260869565217391,-3.6037014250399384,4.3928562871046415,0.7891548620647029,492.9462841685157,590.9517164172788
1.7104001288988752E12,1.858695652173913,-6.456521739130435,3.3152173913043477,-3.6156014937879437,4.363935513965549,0.7483340201776052,492.93070589670015,590.9456582004617
1.710400128918407E12,1.8695652173913042,-6.4021739130434785,3.2717391304347827,-3.62937672488412,4.358670635064916,0.7292939101807965,492.91397367882416,590.944287889515
1.7104001289379387E12,1.8804347826086956,-6.413043478260869,3.3804347826086953,-3.64856107813848,4.354920310368575,0.706359232230095,492.8942844741684,590.9361381454632
1.7104001289574705E12,1.8478260869565217,-6.5,3.358695652173913,-3.6088220606830195,4.2639749364823025,0.6551528757992835,492.9157045979148,591.056869752034
1.7104001289770022E12,1.8695652173913042,-6.543478260869565,3.3804347826086953,-3.3054063684232675,4.657614786340569,1.3522084179173015,492.91224275973354,590.8449764066906
1.710400128996534E12,1.9565217391304348,-6.467391304347826,3.282608695652174,-3.302809989787339,5.11695744001358,1.8141474502262416,492.922411909391,590.5205011988284
1.7104001290160657E12,1.9239130434782608,-6.358695652173913,3.260869565217391,-3.653753835410337,4.18485750971526,0.5311036743049233,492.90358816428045,590.8715171660801
1.7104001290355977E12,1.9565217391304348,-6.173913043478261,3.2282608695652173,-3.6330549279516853,4.291453277045879,0.6583983490941941,492.91224275973354,590.9811420418193
1.7104001290551294E12,1.8804347826086956,-6.141304347826087,3.3478260869565215,-3.619640304999388,4.281356249017269,0.6617159440178805,492.927532545034,591.0071058281786
1.7104001290746611E12,1.9456521739130435,-6.228260869565217,3.25,-3.61343784492467,4.264912517656388,0.6514746727317182,492.951981777189,591.0303289926445
1.7104001290941929E12,2.010869565217391,-6.293478260869565,3.0978260869565215,-3.59562380261705,4.312512792648411,0.7168889900313604,492.9461399252582,591.036603574348
1.7104001291137246E12,1.967391304347826,-6.358695652173913,3.152173913043478,-3.6022589924644226,4.344679039082413,0.7424200466179904,492.9528472367343,591.0483593998384
1.7104001291332563E12,2.0217391304347827,-6.478260869565217,3.260869565217391,-3.594614099814189,4.394370841308933,0.7997567414947441,492.9657570082852,591.0655243474871
1.710400129152788E12,1.9130434782608696,-6.5978260869565215,3.3369565217391304,-3.553865379555867,4.422137668387612,0.8682722888317453,492.95645331817315,591.1094464194115
1.7104001291723198E12,1.8804347826086956,-6.532608695652174,3.152173913043478,-3.5136215106989757,4.435985021112564,0.9223635104135884,492.9527029934768,591.1310829080443
1.7104001291918516E12,1.934782608695652,-6.391304347826087,3.043478260869565,-3.4382544086282745,4.474137362734957,1.0358829541066832,492.96294426476294,591.197434806518
1.7104001292113833E12,1.891304347826087,-6.3478260869565215,3.184782608695652,-3.3998857021195534,4.4892107831490975,1.089325081029544,492.94743811457613,591.1958481306849
1.7104001292309153E12,1.8695652173913042,-6.4021739130434785,3.2065217391304346,-3.401400256323845,4.510775150153059,1.1093748938292138,492.9582563588925,591.1177404067207
1.710400129250447E12,1.8369565217391304,-6.445652173913043,3.108695652173913,-3.5023705366099525,4.5220982458708585,1.019727709260906,492.9379180595777,591.0335744659394
1.7104001292699788E12,1.891304347826087,-6.326086956521739,3.043478260869565,-3.6347137254135284,4.488417445232564,0.8537037198190356,492.9335186402224,590.9333975235699
1.7104001292895105E12,1.9891304347826086,-6.3478260869565215,3.0543478260869565,-3.696305596388054,4.462886388645934,0.7665807922578803,492.9187337063234,590.9084434400133
1.7104001293090422E12,1.8695652173913042,-6.413043478260869,3.0978260869565215,-3.7118838682036244,4.46021788838123,0.7483340201776052,492.9184452198083,590.8893312083878
1.710400129328574E12,1.826086956521739,-6.5,3.0869565217391304,-3.726236072330007,4.4493996440648615,0.7231635717348542,492.9413077761302,590.8948124521747
1.7104001293481057E12,1.934782608695652,-6.521739130434782,3.0543478260869565,-3.7342415731241196,4.461299712812867,0.727058139688747,492.9262343557161,590.8801717615332
1.7104001293676375E12,1.858695652173913,-6.478260869565217,3.043478260869565,-3.738208262706788,4.468583997319222,0.7303757346124333,492.9433271817359,590.873825058201
1.7104001293871692E12,1.8043478260869565,-6.467391304347826,2.967391304347826,-3.7370543166463754,4.476012525083128,0.7389582084367524,492.89168809553246,590.872526868883
1.7104001294067012E12,1.7826086956521738,-6.434782608695652,3.0869565217391304,-3.7287603293371596,4.478104052317626,0.7493437229804663,492.9312107481016,590.894379722402
1.710400129426233E12,1.7826086956521738,-6.434782608695652,3.2717391304347827,-3.7230627206638722,4.484811363793774,0.7617486431299023,492.95032297972716,590.874762639375
1.7104001294457646E12,1.8804347826086956,-6.445652173913043,3.141304347826087,-3.7390737222520976,4.482647714930501,0.7435739926784031,492.90272270473514,590.8630789355134
1.7104001294652964E12,1.9021739130434783,-6.369565217391304,3.0978260869565215,-3.7343136947528954,4.478969511862935,0.7446558171100399,492.88829837898,590.8527655425985
1.7104001294848281E12,1.9239130434782608,-6.33695652173913,3.1630434782608696,-3.7370543166463754,4.4761567683406795,0.739102451694304,492.90019844772803,590.8688486658154
1.7104001295043599E12,1.9239130434782608,-6.369565217391304,3.1739130434782608,-3.752127737060516,4.479690728150693,0.7275629910901775,492.86882553921055,590.8733202067996
1.7104001295238916E12,1.9456521739130435,-6.456521739130435,3.1630434782608696,-3.737559168047806,4.487551985687254,0.7499928176394484,492.8674552282638,590.8609152866501
1.7104001295434233E12,1.9891304347826086,-6.456521739130435,3.184782608695652,-3.757897467362579,4.476589498113334,0.7186920307507552,492.87120555296013,590.8598334622185
1.710400129562955E12,2.0,-6.445652173913043,3.217391304347826,-3.756959886188494,4.477022227885989,0.7200623416974953,492.8969529744331,590.8482218799855
1.7104001295824868E12,1.9891304347826086,-6.478260869565217,3.1739130434782608,-3.7537144128935833,4.488561688490115,0.7348472755965324,492.9282537613218,590.8526934209697
1.7104001296020188E12,2.010869565217391,-6.532608695652174,3.2717391304347827,-3.7581138322489065,4.461948807471849,0.7038349752229424,492.85721395697766,590.8591843675595
1.7104001296215505E12,1.9891304347826086,-6.58695652173913,3.3478260869565215,-3.7734757391781497,4.471108254326374,0.6976325151482243,492.8869280680333,590.8544964616891
1.7104001296410823E12,2.043478260869565,-6.608695652173913,3.358695652173913,-3.7724660363752887,4.508034528259579,0.7355684918842903,492.90690575920416,590.8390624331311
1.710400129660614E12,2.0217391304347827,-6.510869565217391,3.3152173913043477,-3.755517453612978,4.524766746135563,0.7692492925225846,492.90474211034086,590.8544964616891
1.7104001296801458E12,2.032608695652174,-6.4021739130434785,3.3260869565217392,-3.716355409187724,4.580588886808025,0.864233477620301,492.8582236597805,590.811728335825
1.7104001296996775E12,2.130434782608696,-6.326086956521739,3.391304347826087,-3.7362609787298418,4.480411944438451,0.7441509657086094,492.8791389321255,590.8067519434395
1.7104001297192092E12,2.1956521739130435,-6.304347826086956,3.3804347826086953,-3.790280078682909,4.414997627138809,0.6247175484558998,492.8657243091732,590.8133150116581
1.710400129738741E12,2.1956521739130435,-6.358695652173913,3.5,-3.7829957941765544,4.484162269134792,0.701166474958238,492.87365768833854,590.7782639000731
1.7104001297582727E12,2.282608695652174,-6.3478260869565215,3.543478260869565,-3.7798224425104197,4.419036438350253,0.6392139958398337,492.89320264973674,590.7988185642741
1.7104001297778044E12,2.0652173913043477,-6.25,3.543478260869565,-3.7942467682655776,4.588522265973362,0.7942754977077839,492.88231228379163,590.7875675901852
1.7104001297973364E12,2.152173913043478,-6.195652173913043,3.5760869565217392,-3.67957337851207,4.611961795325493,0.9323884168134233,492.90185724518983,590.8609874082789
1.7104001298168682E12,2.369565217391304,-6.380434782608695,3.7717391304347827,-3.269706162179251,5.424267700227225,2.154561538047974,492.88245652704916,590.3217339899223
1.7104001298364E12,2.2717391304347827,-6.576086956521739,3.8043478260869565,-3.743401019978645,4.721947279208575,0.9785462592299294,492.89212082530514,590.4886955605383
1.7104001298559316E12,2.217391304347826,-6.641304347826087,3.7391304347826084,-3.7677781305048623,4.709253872544036,0.941475742039173,492.8998378395841,590.7491988836764
1.7104001298754634E12,2.2391304347826084,-6.423913043478261,3.782608695652174,-3.74159797925925,4.855083805928684,1.113485826669434,492.8806534863298,590.7854039413219
1.710400129894995E12,2.3260869565217392,-6.391304347826087,3.891304347826087,-3.762441129975454,4.872104510319771,1.109663380344317,492.85627637580353,590.808554984159
1.7104001299145269E12,2.2391304347826084,-6.5,3.891304347826087,-3.751695007287861,4.8947507017553695,1.1430556944675083,492.87805710769385,590.8299751079053
1.7104001299340586E12,2.2282608695652173,-6.489130434782608,3.869565217391304,-3.750757426113776,4.923382988379358,1.1726255622655823,492.8823844054204,590.8139641063171
1.7104001299535903E12,2.1847826086956523,-6.358695652173913,3.934782608695652,-3.7035177592656328,5.049163108964337,1.3456453496987046,492.8904620278433,590.8353121084348
1.7104001299731223E12,2.2065217391304346,-6.260869565217391,4.065217391304348,-3.7030129078642022,5.053923136463539,1.3509102285993373,492.8879377708361,590.8762771935794
1.710400129992654E12,2.1630434782608696,-6.358695652173913,4.076086956521739,-3.6857037169580127,5.079814801194049,1.394111084236036,492.89240931182024,590.9361381454632
1.7104001300121858E12,2.0543478260869565,-6.434782608695652,4.206521739130435,-3.6256985218165547,5.056086785326814,1.4303882635102587,492.8958711500015,590.9720547165937
1.7104001300317175E12,1.967391304347826,-6.25,4.434782608695652,-3.5726891246663484,5.10000885725127,1.5273197325849215,492.9074106106056,590.973857757313
1.7104001300512493E12,1.8043478260869565,-5.8478260869565215,4.467391304347826,-3.527180376908824,5.168524404588271,1.6413440276794469,492.87473951277013,590.8659638006644
1.710400130070781E12,1.641304347826087,-5.75,4.25,-3.5791079496273936,5.153523105802907,1.5744151561755129,492.892481433449,590.8090598355603
1.7104001300903127E12,1.9130434782608696,-5.83695652173913,4.413043478260869,-3.748665898879278,4.997524022760871,1.2488581238815932,492.83716414417796,590.703978622434
1.7104001301098445E12,1.9239130434782608,-6.58695652173913,4.869565217391305,-3.8466791923855777,5.008774996849895,1.162095804464317,492.8350726169435,590.607479883132
1.7104001301293762E12,2.010869565217391,-7.130434782608695,4.663043478260869,-3.862690193973803,4.987499116361036,1.124808922387233,492.8507951320166,590.6201011681678
1.710400130148908E12,2.043478260869565,-6.934782608695652,3.7717391304347827,-3.896731602755976,5.033729080406318,1.1369974776503418,492.84343872588147,590.5606729460566
1.71040013016844E12,1.684782608695652,-6.489130434782608,3.3043478260869565,-3.902357089800488,5.011876226887253,1.1095191370867654,492.8719988908767,590.5636299328363
1.7104001301879717E12,1.8478260869565217,-6.315217391304348,3.934782608695652,-3.8917552103704467,5.0415182163141035,1.1497630059436568,492.86550794428683,590.5345649164396
1.7104001302075034E12,2.010869565217391,-6.315217391304348,4.130434782608695,-3.867450221473005,5.068996556877679,1.2015463354046745,492.90214573170493,590.5173278471623
1.7104001302270352E12,2.0760869565217392,-6.358695652173913,3.717391304347826,-3.8766817899563066,5.1080143580453825,1.231332568089076,492.8717104043616,590.5093223463682
1.710400130246567E12,1.9130434782608696,-5.923913043478261,3.5978260869565215,-3.8697581135938304,5.097989451645548,1.2282313380517171,492.8567091055762,590.5036968593237
1.7104001302660986E12,1.9239130434782608,-5.83695652173913,3.8478260869565215,-3.8490592061351787,5.1248186975501415,1.2757594914149633,492.85476182159925,590.4933834664087
1.7104001302856304E12,1.8478260869565217,-6.043478260869565,4.206521739130435,-3.8386015699626888,5.099576127478615,1.2609745575159261,492.8567091055762,590.4834306816376
1.710400130305162E12,1.8152173913043477,-6.206521739130435,4.315217391304348,-3.8577138015882735,5.087820301988161,1.2301065003998877,492.8636327819387,590.4949701422418
1.7104001303246938E12,1.9021739130434783,-6.130434782608695,4.184782608695652,-3.8362936778418635,5.09178699157083,1.255493313728966,492.87336920182344,590.4610729767171
1.7104001303442256E12,1.934782608695652,-5.630434782608695,4.010869565217392,-3.8450203949237345,5.096619140698808,1.2515987457750732,492.8745952695126,590.4715306128896
1.7104001303637576E12,1.7282608695652173,-5.826086956521739,4.228260869565217,-3.8380245969324824,5.099215519334736,1.2611909224022535,492.85238180784967,590.476867613419
1.7104001303832893E12,1.5434782608695652,-5.956521739130435,4.619565217391305,-3.8564156122703093,5.108158601302934,1.251742989032625,492.85245392947843,590.4531395975519
1.710400130402821E12,1.5434782608695652,-6.108695652173913,4.695652173913043,-3.825475433525495,5.099359762592288,1.2738843290667927,492.8875050410635,590.4590535711114
1.7104001304223528E12,1.6304347826086956,-6.293478260869565,4.58695652173913,-3.851655584771107,5.104768884750472,1.253113299979365,492.88599048685916,590.4502547324008
1.7104001304418845E12,1.75,-6.358695652173913,4.467391304347826,-3.8348512452663477,5.167442580156634,1.3325913348902865,492.85447333508415,590.4533559624382
1.7104001304614163E12,1.9891304347826086,-6.3478260869565215,4.532608695652174,-3.8356445831828814,5.198454880530225,1.3628102973473428,492.8570697137201,590.4505432189159
1.710400130480948E12,2.130434782608696,-6.478260869565217,4.684782608695652,-3.811483837542992,5.225572612949922,1.41408877540693,492.91101669204437,590.4211897160042
1.7104001305004797E12,2.0760869565217392,-6.380434782608695,4.5978260869565215,-3.8370148941296214,5.220019247534186,1.3830043534045642,492.8779849860651,590.4187375806258
1.7104001305200115E12,2.0543478260869565,-6.206521739130435,4.75,-3.8739411680628266,5.172707459057268,1.2987662909944406,492.89414023091086,590.4266709597911
1.7104001305395435E12,2.152173913043478,-6.010869565217392,4.6521739130434785,-3.8870673045000204,5.170543810193993,1.283476505693973,492.91231488136236,590.4240024595264
1.7104001305590752E12,2.1956521739130435,-5.923913043478261,4.58695652173913,-3.87559996552467,5.18345358174486,1.3078536162201901,492.9058239347725,590.410299350059
1.710400130578607E12,2.043478260869565,-5.978260869565217,4.58695652173913,-3.8809369660540782,5.136863009555699,1.2559260435016208,492.88260077030674,590.5098993193984
1.7104001305981387E12,1.9782608695652173,-6.0978260869565215,4.58695652173913,-3.609038425569347,5.439341120641366,1.8303026950720187,492.8825286486779,590.4187375806258
1.7104001306176704E12,1.9130434782608696,-6.173913043478261,4.619565217391305,-3.5784588549684115,5.767350288313661,2.1888914333452503,492.8957269067439,590.008509756149
1.7104001306372021E12,1.9130434782608696,-6.173913043478261,4.576086956521739,-3.9030061844594703,5.171192904852976,1.2681867203935053,492.8849807840563,590.2592045377737
1.710400130656734E12,1.9239130434782608,-6.173913043478261,4.630434782608695,-3.8207875276550687,5.2708649958211184,1.4500774681660495,492.88829837898,590.434748582214
1.7104001306762656E12,1.8478260869565217,-6.260869565217391,4.739130434782608,-3.824177244207531,5.310676134905355,1.486498890697824,492.88288925682184,590.4638135986106
1.7104001306957974E12,1.9891304347826086,-6.33695652173913,4.6521739130434785,-3.8409094620835145,5.34349147599834,1.5025820139148254,492.8891638385253,590.4567456789906
1.710400130715329E12,2.0,-6.326086956521739,4.673913043478261,-3.8102577698538034,5.359502477586565,1.549244707732762,492.907915462007,590.477516708078
1.710400130734861E12,1.9456521739130435,-6.358695652173913,4.75,-3.7860249025851376,5.360295815503099,1.5742709129179613,492.90726636734803,590.4821324923197
1.7104001307543928E12,1.934782608695652,-6.3478260869565215,4.75,-3.763090224634436,5.396140265004667,1.6330500403702308,492.8751722425428,590.5223763611766
1.7104001307739246E12,1.9565217391304348,-6.25,4.793478260869565,-3.7321500458896217,5.403208184624694,1.6710581387350725,492.8933468929943,590.5474746879905
1.7104001307934563E12,1.9565217391304348,-6.130434782608695,4.771739130434782,-3.696594082903157,5.44475024279955,1.7481561598963928,492.887649284321,590.5723566499182
1.710400130812988E12,1.9565217391304348,-6.065217391304348,4.684782608695652,-3.618269994052648,5.474536475483951,1.8562664814313032,492.872864350422,590.6208945060843
1.7104001308325198E12,1.9130434782608696,-6.043478260869565,4.717391304347826,-3.5946862214429647,5.520550074642906,1.9258638531999415,492.88938020341163,590.6415212919142
1.7104001308520515E12,1.8478260869565217,-6.032608695652174,4.739130434782608,-3.5863922341337484,5.554807848311406,1.968415614177658,492.8978905556072,590.5590141485947
1.7104001308715833E12,1.8369565217391304,-6.043478260869565,4.782608695652174,-3.6797897433983975,5.55560118622794,1.8758114428295427,492.9034439210229,590.4635251120956
1.710400130891115E12,1.7934782608695652,-5.967391304347826,4.9021739130434785,-3.820066311367311,5.482902584421943,1.6628362730546324,492.89565478511514,590.3721470084366
1.7104001309106467E12,1.8369565217391304,-5.956521739130435,4.956521739130435,-3.8846151691216435,5.443091445337707,1.558476276216063,492.8790668104967,590.3377449915106
1.7104001309301787E12,1.858695652173913,-6.021739130434782,4.869565217391305,-3.9004819274523173,5.440999918103208,1.5405179906508912,492.8955826634864,590.3183442733699
1.7104001309497104E12,1.8369565217391304,-6.065217391304348,4.869565217391305,-3.9074777254435693,5.459246690183484,1.5517689647399147,492.8877214059498,590.3069490560233
1.7104001309692422E12,1.7934782608695652,-6.032608695652174,4.826086956521739,-3.9167092939268704,5.453044230108766,1.5363349361818954,492.91289185439257,590.2950489872753
1.710400130988774E12,1.8478260869565217,-6.032608695652174,4.891304347826087,-3.9105789554809283,5.460256392986345,1.5496774375054168,492.8791389321255,590.2993762850018
1.7104001310083057E12,1.8478260869565217,-6.0,4.75,-3.939283363733693,5.495812355972809,1.5565289922391168,492.859666092356,590.2977896091687
1.7104001310278374E12,1.8152173913043477,-6.021739130434782,4.83695652173913,-3.9555828518370215,5.511318506159604,1.555735654322583,492.8545454567129,590.3095454346592
1.7104001310473691E12,1.9239130434782608,-6.163043478260869,4.826086956521739,-3.944043391232895,5.512472452220018,1.5684290609871223,492.8877214059498,590.2967077847371
1.710400131066901E12,1.9891304347826086,-6.239130434782608,4.9021739130434785,-3.944764607520653,5.514347614568188,1.569583007047535,492.91195427321844,590.3017562987515
1.7104001310864326E12,2.0217391304347827,-6.1521739130434785,4.880434782608695,-3.964814420320323,5.523795547937817,1.5589811276174936,492.916281570945,590.2843749862164
1.7104001311059646E12,2.010869565217391,-6.228260869565217,4.83695652173913,-3.972026583197902,5.529276791724777,1.5572502085268747,492.9065451510603,590.2751434177331
1.7104001311254963E12,1.9456521739130435,-6.195652173913043,4.793478260869565,-4.013712884630309,5.5536539022509945,1.539941017620685,492.8874329194347,590.2749270528468
1.710400131145028E12,1.9565217391304348,-6.119565217391304,4.858695652173913,-4.000370383306787,5.533892575966427,1.5335221926596396,492.8856298787153,590.2741337149303
1.7104001311645598E12,1.9891304347826086,-6.054347826086956,4.793478260869565,-4.015515925349704,5.553798145508546,1.5382822201588418,492.8869280680333,590.2762973637936
1.7104001311840916E12,1.9565217391304348,-6.043478260869565,4.8478260869565215,-4.0160928983799105,5.556538767402026,1.5404458690221154,492.8829613784506,590.2680033764843
1.7104001312036233E12,1.934782608695652,-6.054347826086956,4.891304347826087,-4.025108101976884,5.552788442705685,1.5276803407288004,492.912098516476,590.2806246615202
1.710400131223155E12,1.9130434782608696,-6.130434782608695,4.869565217391305,-4.0339069406875305,5.566780038688188,1.5328730980006575,492.869330390612,590.264253051788
1.7104001312426868E12,1.9130434782608696,-6.141304347826087,4.858695652173913,-4.034988765119167,5.55733210531856,1.522343340199392,492.87409041811117,590.2606469703493
1.7104001312622185E12,1.9021739130434783,-6.130434782608695,4.880434782608695,-4.040902738678782,5.572694012247803,1.5317912735690207,492.8898850548131,590.2599257540614
1.7104001312817502E12,1.8695652173913042,-6.173913043478261,4.8478260869565215,-4.0452300364053295,5.572621890619027,1.5273918542136973,492.9046699887121,590.2532184425853
1.7104001313012822E12,1.9130434782608696,-6.163043478260869,4.815217391304348,-4.061241037993555,5.591517757358284,1.5302767193647289,492.888947473639,590.2491075097452
1.710400131320814E12,1.9239130434782608,-6.141304347826087,4.880434782608695,-4.053668266972097,5.601614785386895,1.5479465184147978,492.8996214746978,590.2520644965249
1.7104001313403457E12,1.9130434782608696,-6.130434782608695,4.869565217391305,-4.036431197694683,5.662629683331214,1.6261984856365308,492.9011360289021,590.2447080903897
1.7104001313598774E12,1.9782608695652173,-6.108695652173913,4.880434782608695,-4.007077694782936,5.6658030349973485,1.6587253402144124,492.89522205534246,590.2206915880074
1.7104001313794092E12,1.967391304347826,-6.076086956521739,4.815217391304348,-4.017968060728081,5.661475737270802,1.6435076765427206,492.87437890462627,590.2346110623612
1.710400131398941E12,1.891304347826087,-6.054347826086956,4.793478260869565,-4.074439296059525,5.617986395119,1.5435470990594744,492.8791389321255,590.2335292379296
1.7104001314184727E12,1.8804347826086956,-6.076086956521739,4.858695652173913,-4.096075784692262,5.612865759475918,1.5167899747836562,492.89349113625184,590.2266776831958
1.7104001314380044E12,1.8695652173913042,-6.076086956521739,4.804347826086956,-4.084392080830584,5.6006772042128095,1.5162851233822257,492.89536629860004,590.2283364806577
1.7104001314575361E12,1.8695652173913042,-6.043478260869565,4.8478260869565215,-4.098600041699415,5.593537162964006,1.4949371212645914,492.8772637697773,590.2276152643699
1.7104001314770679E12,1.8804347826086956,-6.076086956521739,4.793478260869565,-3.969574447819525,5.687944375031517,1.7183699272119914,492.8989723800388,590.3354370993898
1.7104001314965999E12,1.9021739130434783,-6.141304347826087,4.771739130434782,-3.579973409172703,6.214143778579686,2.634170369406983,492.87560497231544,589.8095261823566
1.7104001315161316E12,1.9565217391304348,-6.130434782608695,4.8478260869565215,-4.049629455760653,5.569520660581668,1.5198912048210151,492.89414023091086,589.9562936969154
1.7104001315356633E12,1.934782608695652,-6.0978260869565215,4.760869565217392,-4.07263625534013,5.592599581789921,1.519963326449791,492.8790668104967,590.1968914505114
1.710400131555195E12,1.9021739130434783,-6.195652173913043,4.804347826086956,-4.062250740796416,5.64178653261501,1.5795357918185942,492.8945729606835,590.2387941168301
1.7104001315747268E12,1.934782608695652,-6.1521739130434785,4.673913043478261,-4.056408888865577,5.655922371855065,1.5995134829894881,492.8846922975412,590.2561033077363
1.7104001315942585E12,1.9130434782608696,-6.119565217391304,4.793478260869565,-4.044292455231244,5.6658030349973485,1.6215105797661042,492.9229888824212,590.2592045377737
1.7104001316137903E12,2.0,-6.173913043478261,4.739130434782608,-4.013280154857655,5.675395211624529,1.6621150567668745,492.90077542075824,590.2845913511028
1.710400131633322E12,1.9239130434782608,-6.260869565217391,4.869565217391305,-4.008664370616003,5.702368700786674,1.693704330170671,492.9273883017765,590.3032708529557
1.7104001316528538E12,1.9021739130434783,-6.271739130434782,4.782608695652174,-3.980248448878342,5.730135527865354,1.749887078987012,492.88671170314694,590.3396201538587
1.7104001316723857E12,1.9239130434782608,-6.163043478260869,4.728260869565217,-3.9327202955150957,5.716793026541833,1.7840727310267368,492.89442871742597,590.3716421570351
1.7104001316919175E12,1.934782608695652,-6.076086956521739,4.706521739130435,-3.892332183400653,5.748887151347059,1.8565549679464064,492.88901959526777,590.3896725642292
1.7104001317114492E12,1.9239130434782608,-6.054347826086956,4.760869565217392,-3.8142965810652476,5.795549845164996,1.9812532640997487,492.8927699199641,590.4294115816846
1.710400131730981E12,1.891304347826087,-6.043478260869565,4.771739130434782,-3.779750320881644,5.823172428986124,2.0434221081044806,492.89298628485045,590.4117417826345
1.7104001317505127E12,1.934782608695652,-6.076086956521739,4.804347826086956,-3.818696000420571,5.836226443794542,2.0175304433739716,492.86637340383214,590.3126466646966
1.7104001317700444E12,1.934782608695652,-6.141304347826087,4.760869565217392,-3.915194739722579,5.8111281169805675,1.8959333772579883,492.88216804053405,590.2142006414176
1.7104001317895762E12,1.9021739130434783,-6.141304347826087,4.793478260869565,-4.03477240023284,5.733381001160264,1.6986086009274246,492.8785619590953,590.1700622046069
1.710400131809108E12,1.8804347826086956,-6.163043478260869,4.793478260869565,-4.080713877763019,5.708859647376496,1.6281457696134771,492.86500309288544,590.1560706086243
1.7104001318286396E12,1.8695652173913042,-6.163043478260869,4.793478260869565,-4.101701271736774,5.709436620406702,1.6077353486699282,492.880581364701,590.1497960269209
1.7104001318481714E12,1.8804347826086956,-6.184782608695652,4.75,-4.095210325146953,5.687295280372535,1.5920849552255816,492.84884784803967,590.1344341199916
1.7104001318677034E12,1.9130434782608696,-6.173913043478261,4.728260869565217,-4.125212922717681,5.726385203169013,1.6011722804513313,492.8701958501573,590.1390499042333
1.710400131887235E12,1.8369565217391304,-6.0978260869565215,4.793478260869565,-4.1124473944243665,5.710085715065684,1.5976383206413176,492.84437630705554,590.1416462828691
1.7104001319067668E12,1.9021739130434783,-6.032608695652174,4.75,-4.115332259575398,5.7227070001014475,1.6073747405260492,492.8533915106525,590.1380402014304
1.7104001319262986E12,1.8478260869565217,-6.054347826086956,4.793478260869565,-4.114899529802743,5.733092514645161,1.618192984842418,492.8500017941001,590.1295298492348
1.7104001319458303E12,1.9021739130434783,-6.119565217391304,4.826086956521739,-4.118289246355205,5.748670786460732,1.6303815401055266,492.87380193159606,590.117269172343
1.710400131965362E12,1.891304347826087,-6.141304347826087,4.782608695652174,-4.142017262222441,5.773696991645932,1.6316797294234908,492.86168549796173,590.0994551300354
1.7104001319848938E12,1.9130434782608696,-6.1521739130434785,4.739130434782608,-4.133723274913224,5.770018788578366,1.6362955136651414,492.8621182277344,590.0882041559463
1.7104001320044255E12,1.8695652173913042,-6.119565217391304,4.739130434782608,-4.145623343661231,5.774778816077569,1.6291554724163382,492.85858426792436,590.0832277635608
1.7104001320239573E12,1.9021739130434783,-6.08695652173913,4.717391304347826,-4.155215520288411,5.777880046114928,1.6226645258265169,492.904381502197,590.0686591945481
1.710400132043489E12,1.9130434782608696,-6.076086956521739,4.673913043478261,-4.172885319338479,5.80593535970871,1.6330500403702308,492.8710613097026,590.072193154358
1.710400132063021E12,1.934782608695652,-6.0978260869565215,4.706521739130435,-4.180818698503816,5.804420805504418,1.6236021070006021,492.8608921600452,590.0651973563669
1.7104001320825527E12,1.9239130434782608,-6.076086956521739,4.706521739130435,-4.175553819603183,5.813003279328737,1.637449459725554,492.87409041811117,590.0528645578462
1.7104001321020845E12,1.9130434782608696,-6.119565217391304,4.695652173913043,-4.178150198239112,5.805863238079934,1.6277130398408224,492.8820959189053,590.0591391395496
1.7104001321216162E12,1.9130434782608696,-6.108695652173913,4.706521739130435,-4.181467793162798,5.824470618304089,1.64300282514129,492.86940251224075,590.0483930168621
1.710400132141148E12,1.9130434782608696,-6.119565217391304,4.728260869565217,-4.183559320397296,5.841779809210278,1.658220488812982,492.8567091055762,590.0399547862953
1.7104001321606797E12,1.9130434782608696,-6.119565217391304,4.684782608695652,-4.202887916909209,5.8454580122778435,1.6425700953686353,492.8706285799299,590.0295692717516
1.7104001321802114E12,1.8804347826086956,-6.130434782608695,4.717391304347826,-4.202094578992675,5.8797157859463445,1.6776212069536696,492.8937075011382,590.0338965694781
1.7104001321997432E12,1.9021739130434783,-6.141304347826087,4.706521739130435,-4.185578726003018,5.925368776961419,1.7397900509584012,492.86197398447683,590.0422626784161
1.710400132219275E12,1.9021739130434783,-6.108695652173913,4.760869565217392,-4.154133695856774,5.960780496690333,1.8066468008335592,492.8713497962177,590.0215637709575
1.710400132238807E12,1.9239130434782608,-6.130434782608695,4.695652173913043,-4.17526533308808,5.943543427412919,1.7682780943248386,492.9020014884474,590.0208425546697
1.7104001322583386E12,1.858695652173913,-6.0978260869565215,4.717391304347826,-4.210532809559442,5.906328666964611,1.6957958574051688,492.8951499337137,590.0203377032683
1.7104001322778704E12,1.891304347826087,-6.119565217391304,4.684782608695652,-4.224596527170721,5.8947892063604845,1.670192679189763,492.87748013466364,590.0157940406555
1.710400132297402E12,1.9021739130434783,-6.141304347826087,4.684782608695652,-4.2286353383821655,5.890029178861282,1.6613938404791166,492.8690419040969,590.0165152569432
1.7104001323169338E12,1.891304347826087,-6.141304347826087,4.793478260869565,-4.241184501789153,5.902938950412149,1.6617544486229956,492.88303350007936,590.0046151881952
1.7104001323364656E12,1.9130434782608696,-6.163043478260869,4.739130434782608,-4.098311555184312,5.996624946191901,1.8983133910075893,492.9052469617423,590.1099127662078
1.7104001323559973E12,1.9021739130434783,-6.163043478260869,4.760869565217392,-3.7332318703212586,6.582324693480098,2.8490928231588395,492.89464508231225,589.6058547026938
1.710400132375529E12,1.9782608695652173,-6.163043478260869,4.75,-4.203537011568191,5.890389787005161,1.6868527754369707,492.8872165545484,589.7349524182025
1.7104001323950608E12,1.9239130434782608,-6.076086956521739,4.695652173913043,-4.209739471642909,5.905607450676853,1.6958679790339446,492.8917602171612,589.9757665366849
1.7104001324145925E12,1.8478260869565217,-6.130434782608695,4.8478260869565215,-4.201806092477572,5.964675064644226,1.7628689721666542,492.88541351382895,590.0485372601196
1.7104001324341245E12,1.9891304347826086,-6.130434782608695,4.684782608695652,-4.20800855255229,5.988547323769013,1.780538771216723,492.8835383514808,590.059355504436
1.7104001324536562E12,1.9891304347826086,-6.043478260869565,4.739130434782608,-4.214138890998232,6.017107488764226,1.802968597765994,492.8711334313314,590.0636828021626
1.710400132473188E12,1.9456521739130435,-6.08695652173913,4.695652173913043,-4.1662501294911065,6.014511110128297,1.8482609806371906,492.9210415984442,590.0812083579551
1.7104001324927197E12,1.9239130434782608,-6.173913043478261,4.771739130434782,-4.1666107376349855,6.042205815578201,1.8755950779432153,492.86579643080194,590.0967145081419
1.7104001325122515E12,1.9130434782608696,-6.217391304347826,4.804347826086956,-4.134877220973637,6.068458088452588,1.933580867478951,492.89024566295694,590.1310444034391
1.7104001325317832E12,1.9021739130434783,-6.173913043478261,4.760869565217392,-4.1076152452963886,6.0881472931083795,1.9805320478119908,492.88476441917,590.1490748106331
1.710400132551315E12,1.9130434782608696,-6.163043478260869,4.706521739130435,-4.028642061786898,6.109928024998668,2.0812859632117706,492.9151276248846,590.2199703717197
1.7104001325708467E12,1.9239130434782608,-6.163043478260869,4.739130434782608,-3.982267854484064,6.1392815279104145,2.1570136734263508,492.91455065185437,590.2421838333827
1.7104001325903784E12,1.8695652173913042,-6.130434782608695,4.728260869565217,-3.946856134755151,6.158177394649672,2.2113212598945213,492.91310821927885,590.209584857176
1.7104001326099102E12,1.9021739130434783,-6.119565217391304,4.728260869565217,-3.988830922702661,6.174116274609122,2.185285351906461,492.9249361663981,590.1001763463231
1.7104001326294421E12,1.9239130434782608,-6.141304347826087,4.782608695652174,-4.094489108859195,6.146421569159219,2.0519324603000237,492.89464508231225,590.026540163343
1.7104001326489739E12,1.934782608695652,-6.141304347826087,4.760869565217392,-4.21947589152764,6.074804791784858,1.855328900257218,492.8621182277344,589.9434560469933
1.7104001326685056E12,1.9130434782608696,-6.163043478260869,4.760869565217392,-4.26455190951251,6.061895020233992,1.7973431107214823,492.8430059961088,589.919439544611
1.7104001326880374E12,1.9239130434782608,-6.1521739130434785,4.739130434782608,-4.273855599624587,6.044513707699027,1.7706581080744397,492.8443041854268,589.9029236916213
1.710400132707569E12,1.9021739130434783,-6.119565217391304,4.75,-4.283592019509318,6.0641307907260416,1.780538771216723,492.8450254017145,589.9122995033622
1.7104001327271008E12,1.934782608695652,-6.119565217391304,4.760869565217392,-4.267653139549869,6.0445858293278025,1.7769326897779334,492.8535357539101,589.9120831384759
1.7104001327466326E12,1.934782608695652,-6.1521739130434785,4.739130434782608,-4.26916769375416,6.047398572850058,1.7782308790958976,492.8782734725802,589.8988848804098
1.7104001327661643E12,1.9565217391304348,-6.119565217391304,4.706521739130435,-4.268157990951299,6.056702262962135,1.7885442720108358,492.896664487918,589.8967933531753
1.710400132785696E12,1.8695652173913042,-6.108695652173913,4.804347826086956,-4.27277377519295,6.07357872409567,1.8008049489027202,492.85577152440214,589.8944854610545
1.710400132805228E12,1.9456521739130435,-6.141304347826087,4.75,-4.253445178681037,6.064635642127471,1.811190463446434,492.8717104043616,589.8791235541253
1.7104001328247598E12,1.9565217391304348,-6.163043478260869,4.75,-4.258205206180239,6.059154398340511,1.8009491921602718,492.86197398447683,589.882729635564
1.7104001328442915E12,1.934782608695652,-6.184782608695652,4.75,-4.260008246899634,6.075670251330167,1.8156620044305332,492.8516605915619,589.8784744594664
1.7104001328638232E12,1.9021739130434783,-6.173913043478261,4.728260869565217,-4.257772476407585,6.066871412619521,1.809098936211936,492.88829837898,589.862174971363
1.710400132883355E12,1.891304347826087,-6.130434782608695,4.728260869565217,-4.247891813265301,6.056341654818255,1.808449841552954,492.8976020690921,589.8452263886006
1.7104001329028867E12,1.9021739130434783,-6.141304347826087,4.739130434782608,-4.254887611256553,6.050427681258641,1.7955400700020874,492.886062608488,589.8509961189027
1.7104001329224185E12,1.9239130434782608,-6.130434782608695,4.717391304347826,-4.258421571066567,6.062688358150525,1.8042667870839582,492.856781227205,589.8475342807214
1.7104001329419502E12,1.9130434782608696,-6.1521739130434785,4.760869565217392,-4.258205206180239,6.05215860034926,1.79395339416902,492.8863510950031,589.8410433341317
1.710400132961482E12,1.9456521739130435,-6.130434782608695,4.771739130434782,-4.2598640036420825,6.046244626789645,1.786380623147562,492.8841874461398,589.8308020628455
1.7104001329810137E12,1.9239130434782608,-6.1521739130434785,4.706521739130435,-4.255897314059414,6.056558019704583,1.8006607056451687,492.8937075011382,589.8295038735275
1.7104001330005457E12,1.9130434782608696,-6.130434782608695,4.728260869565217,-4.238516001524449,6.034272436412864,1.7957564348884147,492.9056075698862,589.8245996027708
1.7104001330200774E12,1.9239130434782608,-6.119565217391304,4.728260869565217,-4.243348150652427,6.032325152435917,1.7889770017834905,492.8805092430722,589.8212820078471
1.7104001330396091E12,1.9021739130434783,-6.141304347826087,4.706521739130435,-4.24774757000775,6.050644046144968,1.8028964761372182,492.8791389321255,589.807506776751
1.7104001330591409E12,1.9239130434782608,-6.141304347826087,4.728260869565217,-4.243420272281202,6.036796693420016,1.7933764211388137,492.9014245154172,589.8196232103853
1.7104001330786726E12,1.9021739130434783,-6.119565217391304,4.728260869565217,-4.243131785766099,6.050716167773744,1.8075843820076445,492.89623175814535,589.8030352357669
1.7104001330982043E12,1.9130434782608696,-6.163043478260869,4.717391304347826,-4.238299636638121,6.049634343342107,1.8113347067039858,492.8803649998147,589.8072904118646
1.710400133117736E12,1.9456521739130435,-6.130434782608695,4.739130434782608,-4.238804488039552,6.084973941442245,1.8461694534026927,492.8754607290579,589.8040449385697
1.7104001331372678E12,1.934782608695652,-6.141304347826087,4.739130434782608,-4.214138890998232,6.139497892796743,1.925359001798511,492.8978905556072,589.7917121400491
1.7104001331567996E12,1.9130434782608696,-6.173913043478261,4.739130434782608,-4.182333252708108,6.14295973097798,1.9606264782698726,492.922411909391,589.7922169914505
1.7104001331763313E12,1.9239130434782608,-6.1521739130434785,4.739130434782608,-4.207503701150859,6.1080528626504975,1.9005491614996388,492.93467258628283,589.8058479792891
1.7104001331958633E12,1.9021739130434783,-6.1521739130434785,4.684782608695652,-4.228058365351959,6.070693858944638,1.842635493592679,492.93755745143386,589.7953903431167
1.710400133215395E12,1.9239130434782608,-6.141304347826087,4.673913043478261,-4.2303662574727845,6.059082276711736,1.8287160192389513,492.9162094493162,589.79813096501
1.7104001332349268E12,1.9565217391304348,-6.130434782608695,4.706521739130435,-4.221567418762138,6.05028343800109,1.8287160192389513,492.9012802721596,589.7993570326993
1.7104001332544585E12,1.934782608695652,-6.163043478260869,4.717391304347826,-4.223370459481533,6.035210017586949,1.8118395581054163,492.90308331287906,589.8048382764862
1.7104001332739902E12,1.9239130434782608,-6.195652173913043,4.728260869565217,-3.9767144890683284,6.252223998573303,2.275509509504975,492.90149663704597,589.7926497212231
1.710400133293522E12,1.9239130434782608,-6.184782608695652,4.771739130434782,-3.6474792537068432,6.826889136658805,3.179409882951961,492.9374853298051,589.3022947671765
1.7104001333130537E12,1.9565217391304348,-6.184782608695652,4.706521739130435,-4.234693555199332,5.970733281461392,1.7360397262620602,492.9338792483663,589.6140044467455
1.7104001333325854E12,1.8804347826086956,-6.108695652173913,4.826086956521739,-4.160913128961698,6.076752075761805,1.9158389468001065,492.93041741018504,589.8007994652747
1.7104001333521172E12,1.9021739130434783,-6.163043478260869,4.695652173913043,-4.179953238958507,6.089806090570223,1.909852851611716,492.9002705693568,589.823878386483
1.710400133371649E12,1.934782608695652,-6.076086956521739,4.717391304347826,-4.168702264869483,6.093917023410443,1.9252147585409594,492.9079875836358,589.8450821453431
1.710400133391181E12,1.934782608695652,-6.119565217391304,4.695652173913043,-4.165745278089676,6.12377537772362,1.9580300996339441,492.89637600140287,589.8475342807214
1.7104001334107126E12,1.9239130434782608,-6.141304347826087,4.663043478260869,-4.132641450481588,6.140579717228379,2.0079382667467915,492.9150555032558,589.8623192146206
1.7104001334302444E12,1.9130434782608696,-6.195652173913043,4.880434782608695,-4.12506867946013,6.147647636848406,2.022578957388277,492.8978905556072,589.8842441897684
1.7104001334497761E12,1.9565217391304348,-6.239130434782608,4.760869565217392,-4.091604243708163,6.183852694493854,2.0922484507856907,492.900847542387,589.9266517074885
1.7104001334693079E12,1.9565217391304348,-6.1521739130434785,4.717391304347826,-4.064558632917241,6.205777669641694,2.141219036724453,492.89536629860004,589.9619191839599
1.7104001334888396E12,1.9456521739130435,-6.141304347826087,4.728260869565217,-4.025468710120763,6.231741456000979,2.206272745880216,492.8980347988647,589.9912726868716
1.7104001335083713E12,1.891304347826087,-6.0978260869565215,4.706521739130435,-3.942096107255949,6.26513377012417,2.3230376628682214,492.89680873117555,590.034906272281
1.710400133527903E12,1.967391304347826,-6.08695652173913,4.728260869565217,-3.919522037449126,6.290953313225903,2.371431275776777,492.8975299474633,590.0080049047476
1.7104001335474348E12,1.9565217391304348,-6.108695652173913,4.771739130434782,-3.9780848000150684,6.310570396252919,2.33248559623785,492.90192936681865,589.8786187027239
1.7104001335669668E12,1.9782608695652173,-6.1521739130434785,4.771739130434782,-4.073645958142992,6.270687135539907,2.197041177396915,492.9007032991294,589.8013764383049
1.7104001335864985E12,2.0,-6.163043478260869,4.739130434782608,-4.192790888880597,6.207075858959659,2.014284970079061,492.90301119125024,589.7240620522573
1.7104001336060303E12,1.934782608695652,-6.130434782608695,4.782608695652174,-4.228202608609511,6.202460074718008,1.974257466108497,492.8986838935237,589.7074019560101
1.710400133625562E12,1.9456521739130435,-6.141304347826087,4.75,-4.246593623947337,6.200080060968407,1.9534864370210694,492.88700018966205,589.6975934144966
1.7104001336450938E12,1.9456521739130435,-6.163043478260869,4.771739130434782,-4.243564515538754,6.21133103505743,1.967766519518676,492.88454805428364,589.6843230348019
1.7104001336646255E12,1.9891304347826086,-6.141304347826087,4.760869565217392,-4.253156692165934,6.226765063615449,1.973608371449515,492.8701958501573,589.6857654673775
1.7104001336841572E12,1.9130434782608696,-6.108695652173913,4.728260869565217,-4.243925123682633,6.220129873768077,1.9762047500854434,492.899549353069,589.6908861030205
1.710400133703689E12,1.9021739130434783,-6.065217391304348,4.728260869565217,-4.252074867734297,6.236501483500181,1.9844266157658836,492.888947473639,589.6854048592335
1.7104001337232207E12,1.9239130434782608,-6.0978260869565215,4.739130434782608,-4.253661543567365,6.2486179171345135,1.994956373567149,492.87762437792117,589.6877848729831
1.7104001337427524E12,1.9239130434782608,-6.141304347826087,4.804347826086956,-4.243420272281202,6.236573605128957,1.9931533328477542,492.8600267004999,589.6872078999529
1.7104001337622844E12,1.9565217391304348,-6.195652173913043,4.793478260869565,-4.259575517126979,6.2603016209961915,2.000726103869212,492.8852692705714,589.6905254948766
1.7104001337818162E12,1.934782608695652,-6.195652173913043,4.75,-4.265273125800268,6.268523486676632,2.0032503608763648,492.8866395815182,589.6690332495015
1.710400133801348E12,1.9130434782608696,-6.163043478260869,4.739130434782608,-4.25871005758167,6.247031241301446,1.9883211837197763,492.90185724518983,589.6706199253344
1.7104001338208796E12,1.9130434782608696,-6.130434782608695,4.739130434782608,-4.270754369587228,6.270687135539906,1.9999327659526787,492.9146227734832,589.6481179771564
1.7104001338404114E12,1.9239130434782608,-6.119565217391304,4.771739130434782,-4.264840396027613,6.259364039822107,1.9945236437944942,492.891183244131,589.6361457867797
1.710400133859943E12,1.9239130434782608,-6.130434782608695,4.75,-4.270321639814573,6.2709035004262335,2.0005818606116605,492.8805092430722,589.6330445567423
1.7104001338794749E12,1.967391304347826,-6.119565217391304,4.793478260869565,-4.272124680533968,6.263042242889672,1.9909175623557047,492.87834559420895,589.6264093668949
1.7104001338990066E12,1.9456521739130435,-6.141304347826087,4.760869565217392,-4.274360451026017,6.278981122849122,2.0046206718231048,492.8529587808799,589.6239572315166
1.7104001339185383E12,1.9239130434782608,-6.119565217391304,4.717391304347826,-4.270898612844779,6.259364039822107,1.9884654269773279,492.8700516068997,589.6176105281843
1.71040013393807E12,1.934782608695652,-6.108695652173913,4.75,-4.276596221518067,6.277899298417485,2.0013030768994184,492.8608200384164,589.6158796090937
1.710400133957602E12,1.9130434782608696,-6.1521739130434785,4.75,-4.279120478525219,6.282587204287911,2.003466725762692,492.8704843366724,589.6043401484895
1.7104001339771338E12,1.967391304347826,-6.1521739130434785,4.75,-4.2786877487525645,6.296434557012864,2.017746808260299,492.8784177158377,589.5990752695889
1.7104001339966655E12,1.934782608695652,-6.119565217391304,4.771739130434782,-4.29332843939405,6.316268004926206,2.022939565532156,492.86608491731704,589.6003734589069
1.7104001340161973E12,1.9239130434782608,-6.108695652173913,4.815217391304348,-4.283447776251767,6.352184576056549,2.068736799804783,492.8954384202288,589.581693957054
1.710400134035729E12,1.9456521739130435,-6.130434782608695,4.760869565217392,-4.243925123682633,6.392716931428543,2.1487918077459107,492.8937075011382,589.5718132939116
1.7104001340552607E12,1.934782608695652,-6.108695652173913,4.815217391304348,-4.235054163343211,6.3936545126026285,2.158600349259418,492.8785619590953,589.550465291794
1.7104001340747925E12,1.9130434782608696,-6.119565217391304,4.793478260869565,-4.291453277045879,6.336678425869755,2.0452251488238753,492.88454805428364,589.5666205366398
1.7104001340943242E12,1.9021739130434783,-6.0978260869565215,4.75,-4.294410263825687,6.298526084247361,2.0041158204216742,492.86896978246807,589.5464264805826
1.710400134113856E12,1.9456521739130435,-6.076086956521739,4.739130434782608,-4.303209102536333,6.316917099585188,2.0137079970488547,492.8694746338695,589.5449840480071
1.710400134133388E12,1.9239130434782608,-6.08695652173913,4.804347826086956,-4.298304831779579,6.297227894929397,1.9989230631498176,492.87675891837586,589.555585927437
1.7104001341529197E12,1.9456521739130435,-6.119565217391304,4.75,-4.2858999116301435,6.235131172553441,1.9492312609232976,492.8704122150436,589.6461706931794
1.7104001341724514E12,1.9021739130434783,-6.08695652173913,4.826086956521739,-3.8245378523514098,6.976469394739794,3.1519315423883847,492.8684649310667,589.1921650400359
1.7104001341919832E12,1.9130434782608696,-6.108695652173913,4.8478260869565215,-4.068741687386237,6.786356781286809,2.7176150939005725,492.87149403947524,589.1517769279214
1.710400134211515E12,1.858695652173913,-6.054347826086956,4.706521739130435,-4.2704658830721245,6.303069746860237,2.0326038637881116,492.863200052166,589.5168566127845
1.7104001342310466E12,1.9021739130434783,-6.032608695652174,4.8478260869565215,-4.253156692165934,6.378148362415834,2.1249916702498997,492.8585121462956,589.5674859961852
1.7104001342505784E12,1.9021739130434783,-6.010869565217392,4.706521739130435,-4.25048819190123,6.379302308476246,2.1288141165750165,492.8751722425428,589.5814775921676
1.71040013427011E12,1.9565217391304348,-5.978260869565217,4.641304347826087,-4.232746271222386,6.397909688700401,2.1651634174780154,492.89053414947205,589.5912861336811
1.7104001342896418E12,1.9782608695652173,-6.0,4.760869565217392,-4.232313541449731,6.426325610438063,2.194012068988332,492.8816631891326,589.5985704181875
1.7104001343091736E12,1.9130434782608696,-6.1521739130434785,4.75,-4.197623038008575,6.422863772256824,2.225240734248249,492.89096687924473,589.6222984340548
1.7104001343287056E12,1.9130434782608696,-6.195652173913043,4.83695652173913,-4.194521807971216,6.458563978500841,2.2640421705296245,492.87120555296013,589.625399664092
1.7104001343482373E12,1.9021739130434783,-6.163043478260869,4.804347826086956,-4.138916032185082,6.481426534822766,2.3425105026376847,492.8722873773918,589.6885060892708
1.710400134367769E12,1.9565217391304348,-6.0978260869565215,4.728260869565217,-4.088935743443459,6.494696914517512,2.405761171074053,492.90755485386313,589.7337263505133
1.7104001343873008E12,1.9021739130434783,-6.054347826086956,4.804347826086956,-4.037440900497544,6.508760632128791,2.471319731631247,492.89861177189493,589.7625750020236
1.7104001344068325E12,1.9239130434782608,-6.065217391304348,4.83695652173913,-3.973108407629539,6.545398419546894,2.5722900119173544,492.8888753520102,589.7594016503575
1.7104001344263643E12,1.934782608695652,-6.08695652173913,4.83695652173913,-3.9787338946740505,6.559390015529397,2.580656120855346,492.89652024466045,589.7070413478663
1.710400134445896E12,1.9456521739130435,-6.076086956521739,4.782608695652174,-4.118433489612757,6.533786837313991,2.4153533477012337,492.88216804053405,589.584578822205
1.7104001344654277E12,1.9456521739130435,-6.0978260869565215,4.826086956521739,-4.207936430923514,6.495922982206701,2.287986551283187,492.90546332662865,589.5180826804736
1.7104001344849595E12,1.934782608695652,-6.1521739130434785,4.804347826086956,-4.2776780459497035,6.4601506543339084,2.182472608384205,492.8789946888679,589.4776945683592
1.7104001345044912E12,1.9456521739130435,-6.173913043478261,4.782608695652174,-4.2958526964012025,6.454525167289397,2.158672470888194,492.8880820140937,589.4739442436629
1.7104001345240232E12,1.8695652173913042,-6.184782608695652,4.75,-4.28150049227482,6.452217275168572,2.1707167828937513,492.87235949902055,589.4661551077551
1.710400134543555E12,1.9456521739130435,-6.141304347826087,4.804347826086956,-4.300035750870198,6.462097938310855,2.1620621874406565,492.84884784803967,589.4706266487392
1.7104001345630867E12,1.967391304347826,-6.130434782608695,4.728260869565217,-4.31114248170167,6.474791344975394,2.163648863273724,492.8608921600452,589.4653617698386
1.7104001345826184E12,1.967391304347826,-6.119565217391304,4.6521739130434785,-4.308690346323293,6.490946589821171,2.1822562434978776,492.85461757834173,589.4566350527567
1.7104001346021501E12,1.934782608695652,-6.0978260869565215,4.858695652173913,-4.310709751929015,6.510347307961858,2.1996375560328434,492.88159106750385,589.4596641611653
1.710400134621682E12,1.9782608695652173,-6.163043478260869,4.8478260869565215,-4.3153976577994415,6.530324999132752,2.214927341333311,492.8671667417487,589.464929040066
1.7104001346412136E12,2.0217391304347827,-6.1521739130434785,4.739130434782608,-4.310060657270033,6.521093430649451,2.211032773379418,492.87322495856586,589.4631259993465
1.7104001346607454E12,1.967391304347826,-6.1521739130434785,4.793478260869565,-4.315181292913114,6.535734121290936,2.2205528283778224,492.8749558776565,589.4627653912027
1.710400134680277E12,1.967391304347826,-6.163043478260869,4.717391304347826,-4.326792875146017,6.534003202200319,2.2072103270543013,492.8707728231875,589.4326906720031
1.710400134699809E12,1.9456521739130435,-6.119565217391304,4.760869565217392,-4.3359523220005425,6.524266782315586,2.188314460315044,492.8745952695126,589.4238197116638
1.7104001347193408E12,1.934782608695652,-6.119565217391304,4.75,-4.3298219835546,6.521454038793331,2.1916320552387303,492.891183244131,589.4171124001875
1.7104001347388726E12,1.9239130434782608,-6.108695652173913,4.75,-4.344318430938534,6.5280171070119275,2.1836986760733934,492.8732970801946,589.421151211399
1.7104001347584043E12,1.9239130434782608,-6.119565217391304,4.793478260869565,-4.355280918512454,6.535878364548489,2.1805974460360344,492.8898850548131,589.4247572928379
1.710400134777936E12,1.934782608695652,-6.1521739130434785,4.739130434782608,-4.374465271766814,6.54424447348648,2.169779201719666,492.8608921600452,589.4162469406423
1.7104001347974678E12,1.934782608695652,-6.130434782608695,4.739130434782608,-4.375258609683348,6.549437230758337,2.174178621074989,492.8450254017145,589.4049238449245
1.7104001348169995E12,1.9239130434782608,-6.163043478260869,4.75,-4.381461069758066,6.552610582424472,2.171149512666406,492.84877572641085,589.4075202235604
1.7104001348365312E12,1.9021739130434783,-6.130434782608695,4.75,-4.386221097257269,6.556360907120814,2.170139809863545,492.8558436460309,589.4030486825764
1.710400134856063E12,1.9021739130434783,-6.141304347826087,4.739130434782608,-4.3777828666905005,6.554846352916521,2.1770634862260207,492.86558006591565,589.4081693182194
1.7104001348755947E12,1.9239130434782608,-6.08695652173913,4.695652173913043,-4.384850786310529,6.559390015529397,2.174539229218868,492.8592333625834,589.4017504932583
1.7104001348951267E12,1.9021739130434783,-6.108695652173913,4.75,-4.386148975628493,6.620765521617595,2.234616545989102,492.8771195265198,589.4025438311749
1.7104001349146584E12,1.934782608695652,-6.119565217391304,4.760869565217392,-4.356795472716746,6.645070510515036,2.2882750377982903,492.8711334313314,589.3987935064786
1.7104001349341902E12,1.9456521739130435,-6.1521739130434785,4.760869565217392,-4.33119229450134,6.654734808770993,2.323542514269652,492.8647867279991,589.3925910464038
1.710400134953722E12,1.9565217391304348,-6.130434782608695,4.760869565217392,-4.3808840967278595,6.626607373548433,2.2457232768205735,492.85490606485683,589.3993704795088
1.7104001349732537E12,1.967391304347826,-6.1521739130434785,4.793478260869565,-4.393938111536278,6.573453733140676,2.1795156216043976,492.8290144001263,589.4095396291661
1.7104001349927854E12,1.934782608695652,-6.1521739130434785,4.739130434782608,-4.403313923277131,6.576771328064362,2.1734574047872313,492.86103640330276,589.4069432505302
1.7104001350123171E12,1.9239130434782608,-6.141304347826087,4.728260869565217,-4.405477572140405,6.578934976927636,2.1734574047872313,492.87445102625503,589.3974953171605
1.7104001350318489E12,1.934782608695652,-6.130434782608695,4.728260869565217,-4.411752153843898,6.521886768565985,2.110134614722087,492.85930548421214,589.4900273668799
1.7104001350513806E12,1.9456521739130435,-6.130434782608695,4.75,-4.130189315103211,6.824076393136549,2.6938870780333377,492.8572860786064,589.3760030717854
1.7104001350709124E12,1.9456521739130435,-6.141304347826087,4.760869565217392,-4.0569137402670075,7.127564207025076,3.0706504667580687,492.8888753520102,588.9957778448794
1.7104001350904443E12,1.967391304347826,-6.141304347826087,4.673913043478261,-4.429133466378864,6.513953389400648,2.0848199230217843,492.9011360289021,589.2485641537386
1.710400135109976E12,1.9021739130434783,-6.0978260869565215,4.83695652173913,-4.373455568963953,6.632232860592945,2.258777291628992,492.86810432292276,589.4376670643887
1.7104001351295078E12,1.9456521739130435,-6.130434782608695,4.739130434782608,-4.3873750433176815,6.654590565513441,2.2672155221957593,492.8826728919355,589.4483410654475
1.7104001351490396E12,1.934782608695652,-6.08695652173913,4.728260869565217,-4.377999231576828,6.664615471913275,2.286616240336447,492.88007651329957,589.4598805260516
1.7104001351685713E12,1.9891304347826086,-6.0978260869565215,4.684782608695652,-4.375547096198451,6.686901055204994,2.311353959006543,492.87776862117875,589.4970231648712
1.710400135188103E12,1.9130434782608696,-6.130434782608695,4.717391304347826,-4.349439066581615,6.686107717288461,2.3366686507068457,492.88346622985205,589.5030092600596
1.7104001352076348E12,1.9130434782608696,-6.184782608695652,4.771739130434782,-4.343597214650776,6.717336382548378,2.373739167897602,492.863200052166,589.5341658036907
1.7104001352271665E12,1.967391304347826,-6.217391304347826,4.75,-4.317272820147612,6.740992276786837,2.4237194566392253,492.8539684836827,589.5576053330428
1.7104001352466982E12,1.9782608695652173,-6.195652173913043,4.717391304347826,-4.255536705915535,6.77503368556901,2.5194969796534754,492.8549781864856,589.6229475287137
1.7104001352662302E12,1.967391304347826,-6.163043478260869,4.717391304347826,-4.215653445202523,6.805829621056274,2.5901761758537503,492.8401932525866,589.6582150051851
1.710400135285762E12,1.934782608695652,-6.130434782608695,4.684782608695652,-4.152042168622276,6.845712881769286,2.6936707131470103,492.8564206190611,589.6688890062438
1.7104001353052937E12,1.9456521739130435,-6.119565217391304,4.760869565217392,-4.145479100403679,6.8633105591905785,2.7178314587869,492.863200052166,589.5900600659919
1.7104001353248254E12,1.967391304347826,-6.130434782608695,4.760869565217392,-4.222360756678672,6.85883901820648,2.636478261527808,492.8849807840563,589.5090674768767
1.7104001353443572E12,1.9565217391304348,-6.1521739130434785,4.760869565217392,-4.367036744002908,6.782317970075366,2.415281226072458,492.8730085936795,589.402183223031
1.710400135363889E12,1.9565217391304348,-6.141304347826087,4.75,-4.446226292398726,6.755488724170771,2.309262431772045,492.88519714894267,589.3771570178458
1.7104001353834207E12,1.9456521739130435,-6.141304347826087,4.739130434782608,-4.484450755649895,6.740271060499079,2.2558203048491845,492.8318271436486,589.3524192991757
1.7104001354029524E12,1.9565217391304348,-6.173913043478261,4.739130434782608,-4.490004121065631,6.740559547014183,2.2505554259485514,492.844881158457,589.3387883113371
1.7104001354224841E12,1.891304347826087,-6.163043478260869,4.684782608695652,-4.490797458982165,6.740343182127855,2.2495457231456903,492.8451696449721,589.3355428380422
1.7104001354420159E12,1.9456521739130435,-6.130434782608695,4.75,-4.495773851367694,6.746545642202573,2.2507717908348788,492.85779093000787,589.3304222023991
1.7104001354615479E12,1.9239130434782608,-6.1521739130434785,4.695652173913043,-4.502264797957515,6.7508729399291205,2.248608141971605,492.86356066030993,589.3370573922465
1.7104001354810796E12,1.934782608695652,-6.119565217391304,4.760869565217392,-4.495268999966264,6.75584933231465,2.2605803323483866,492.8671667417487,589.3411683250866
1.7104001355006113E12,1.891304347826087,-6.173913043478261,4.782608695652174,-4.4892107831490975,6.767821522691431,2.278610739542334,492.8904620278433,589.3305664456566
1.710400135520143E12,1.9130434782608696,-6.184782608695652,4.804347826086956,-4.485893188225411,6.764720292654072,2.2788271044286614,492.88671170314694,589.3252294451272
1.7104001355396748E12,1.891304347826087,-6.1521739130434785,4.815217391304348,-4.498875081405053,6.776692483030853,2.2778174016258004,492.88454805428364,589.32919613471
1.7104001355592065E12,1.934782608695652,-6.1521739130434785,4.782608695652174,-4.492384134815232,6.765585752199382,2.27320161738415,492.9165700574601,589.3168633361893
1.7104001355787383E12,1.891304347826087,-6.163043478260869,4.771739130434782,-4.500894487010775,6.768759103865516,2.2678646168547414,492.90185724518983,589.316935457818
1.71040013559827E12,1.9021739130434783,-6.1521739130434785,4.771739130434782,-4.50356298727548,6.781091902386176,2.277528915110697,492.9270998152614,589.3007080913435
1.7104001356178018E12,1.9130434782608696,-6.119565217391304,4.739130434782608,-4.49721628394321,6.767533036176328,2.2703167522331182,492.94094716798634,589.2890965091105
1.7104001356373335E12,1.9130434782608696,-6.130434782608695,4.75,-4.505943001025081,6.772220942046754,2.266277941021674,492.89565478511514,589.2867886169897
1.7104001356568655E12,1.9239130434782608,-6.08695652173913,4.782608695652174,-4.509837568978974,6.772365185304308,2.262527616325333,492.89709721769066,589.2734461156662
1.7104001356763972E12,1.9456521739130435,-6.163043478260869,4.815217391304348,-4.512722434130006,6.786212538029259,2.273490103899253,492.9025784614776,589.276403102446
1.710400135695929E12,1.9565217391304348,-6.173913043478261,4.793478260869565,-4.520223083522688,6.798328971663592,2.2781058881409035,492.8901014196994,589.2766915889612
1.7104001357154607E12,1.967391304347826,-6.141304347826087,4.771739130434782,-4.530824962952729,6.8074162968893415,2.276591333936612,492.8825286486779,589.2689024530533
1.7104001357349924E12,1.9456521739130435,-6.141304347826087,4.739130434782608,-4.522314610757186,6.805541134541171,2.2832265237839846,492.87531648580034,589.2521702351773
1.7104001357545242E12,1.9239130434782608,-6.108695652173913,4.739130434782608,-4.526425543597406,6.8105175269267,2.284091983329294,492.88541351382895,589.2585169385096
1.710400135774056E12,1.934782608695652,-6.119565217391304,4.793478260869565,-4.534358922762743,6.824364879651652,2.2900059568889093,492.8623345926207,589.2451023155573
1.7104001357935876E12,1.967391304347826,-6.1521739130434785,4.782608695652174,-4.519646110492482,6.812248446017319,2.2926023355248377,492.88995717644184,589.2383228824524
1.7104001358131194E12,1.9782608695652173,-6.119565217391304,4.793478260869565,-4.518059434659414,6.860281450781995,2.3422220161225815,492.9312107481016,589.2258458406742
1.7104001358326514E12,1.9565217391304348,-6.119565217391304,4.804347826086956,-4.492961107845439,6.900236833123783,2.4072757252783448,492.9177240035205,589.2194991373419
1.710400135852183E12,1.934782608695652,-6.108695652173913,4.771739130434782,-4.474642214136388,6.934278241905957,2.459636027769569,492.8913274873886,589.1972135540502
1.7104001358717148E12,1.9456521739130435,-6.119565217391304,4.793478260869565,-4.517770948144311,6.894683467708048,2.376912519563737,492.89890025841004,589.2061566360184
1.7104001358912466E12,1.9021739130434783,-6.130434782608695,4.793478260869565,-4.520655813295343,6.84975169298073,2.329095879685388,492.9084924350372,589.1935353509826
1.7104001359107783E12,1.934782608695652,-6.08695652173913,4.771739130434782,-4.5289498006045585,6.840303759611102,2.311353959006543,492.9241428284816,589.1863953097338
1.71040013593031E12,1.967391304347826,-6.08695652173913,4.804347826086956,-4.536089841853362,6.849679571351954,2.3135897294985925,492.91281973276375,589.1833662013253
1.7104001359498418E12,1.967391304347826,-6.130434782608695,4.804347826086956,-4.535080139050501,6.817657568175504,2.2825774291250025,492.8888032303814,589.2075990685939
1.7104001359693735E12,1.9239130434782608,-6.141304347826087,4.793478260869565,-4.315830387572096,7.0157756824226,2.699945294850504,492.89565478511514,589.250006586314
1.7104001359889053E12,1.9021739130434783,-6.130434782608695,4.83695652173913,-4.012486816941121,7.645109015120152,3.6326221981790305,492.90243421822004,588.7662868221148
1.710400136008437E12,1.9456521739130435,-6.163043478260869,4.793478260869565,-4.557509965599771,6.775177928826562,2.217667963226791,492.90394877242437,589.0076057919987
1.710400136027969E12,1.9021739130434783,-6.065217391304348,4.771739130434782,-4.526714030112509,6.87117181672714,2.344457786614631,492.87567709394426,589.1858904583324
1.7104001360475007E12,1.9565217391304348,-6.076086956521739,4.826086956521739,-4.518564286060845,6.895765292139685,2.37720100607884,492.85800729489415,589.2166142721909
1.7104001360670325E12,1.9021739130434783,-6.021739130434782,4.771739130434782,-4.504716933335892,6.9089635502056534,2.4042466168697616,492.9070500024617,589.227216151621
1.7104001360865642E12,1.9456521739130435,-6.032608695652174,4.717391304347826,-4.515823664167365,6.929085484634101,2.4132618204667358,492.8841874461398,589.232336787264
1.710400136106096E12,1.934782608695652,-6.076086956521739,4.760869565217392,-4.502625406101394,6.935576431223921,2.4329510251225264,492.8600267004999,589.2489247618824
1.7104001361256277E12,1.9021739130434783,-6.206521739130435,4.8478260869565215,-4.4960623378827975,6.966732974855063,2.470670636972265,492.8275719675508,589.2578678438506
1.7104001361451594E12,1.9021739130434783,-6.228260869565217,4.858695652173913,-4.452428752473445,6.981734273640427,2.529305521166983,492.8315386571335,589.3057566053577
1.7104001361646912E12,1.9130434782608696,-6.130434782608695,4.739130434782608,-4.426537087742935,7.004957438106231,2.5784203503632965,492.83932779304126,589.3479477581916
1.710400136184223E12,1.9239130434782608,-6.0978260869565215,4.75,-4.365377946541065,7.04130673900923,2.6759287924681656,492.832981089709,589.4120638861733
1.7104001362037546E12,1.891304347826087,-6.043478260869565,4.826086956521739,-4.308618224694517,7.048879510030688,2.740261285336171,492.85887275443946,589.4269930633299
1.7104001362232866E12,1.934782608695652,-6.076086956521739,4.782608695652174,-4.285034452084834,7.092801581955145,2.807767129870311,492.8613970114466,589.3964134927289
1.7104001362428184E12,1.9565217391304348,-6.08695652173913,4.815217391304348,-4.362060351617378,7.100013744832724,2.7379533932153457,492.86161337633297,589.2864280088459
1.71040013626235E12,1.9782608695652173,-6.108695652173913,4.83695652173913,-4.483152566331931,7.082488189040207,2.599335622708276,492.8439435772829,589.2038487438975
1.7104001362818818E12,1.9565217391304348,-6.076086956521739,4.8478260869565215,-4.614486052332646,7.027675751170606,2.41318969883796,492.84286175285126,589.1337465207275
1.7104001363014136E12,1.9565217391304348,-6.065217391304348,4.826086956521739,-4.656100232136278,7.01527083102117,2.3591705988848926,492.86608491731704,589.1099463832315
1.7104001363209453E12,1.9456521739130435,-6.08695652173913,4.782608695652174,-4.686607681108437,7.024646642762022,2.3380389616535857,492.85858426792436,589.1048978692172
1.710400136340477E12,1.934782608695652,-6.130434782608695,4.760869565217392,-4.681703410351683,7.020463588293026,2.3387601779413436,492.8748837560277,589.0942238681583
1.7104001363600088E12,1.9565217391304348,-6.054347826086956,4.760869565217392,-4.700599277090941,7.025295737421006,2.3246964603300646,492.8872165545484,589.090473543462
1.7104001363795405E12,1.9456521739130435,-6.065217391304348,4.684782608695652,-4.729664293487584,7.038205508971871,2.3085412154842873,492.8629836872797,589.0929978004692
1.7104001363990725E12,2.010869565217391,-6.043478260869565,4.6521739130434785,-4.74892076837072,7.0628711060131915,2.3139503376424715,492.87892256723916,589.0810256100924
1.7104001364186042E12,1.8804347826086956,-6.0978260869565215,4.913043478260869,-4.752310484923182,7.0601304841197114,2.3078199991965294,492.8942123525396,589.072154649753
1.710400136438136E12,1.9456521739130435,-6.163043478260869,4.739130434782608,-4.7891646372276115,7.070227512148323,2.281062874920711,492.8778407428075,589.0686206899429
1.7104001364576677E12,1.9565217391304348,-6.108695652173913,4.771739130434782,-4.823494532524888,7.0932343117278,2.269739779202912,492.87091706644503,589.0580188105129
1.7104001364771995E12,1.9130434782608696,-6.173913043478261,4.75,-4.817075707563842,7.092729460326369,2.2756537527625267,492.859666092356,589.0536193911576
1.7104001364967312E12,1.934782608695652,-6.0978260869565215,4.760869565217392,-4.839433412484338,7.093883406386782,2.2544499939024445,492.85930548421214,589.0467678364239
1.710400136516263E12,1.9565217391304348,-6.0978260869565215,4.760869565217392,-4.8436885885821095,7.087680946312064,2.2439923577299545,492.86767159315013,589.0359495921075
1.7104001365357947E12,1.9456521739130435,-6.119565217391304,4.771739130434782,-4.8477995214223295,7.096984636424141,2.2491851150018114,492.89226506856266,589.0290980373738
1.7104001365553264E12,1.9565217391304348,-6.0978260869565215,4.771739130434782,-4.861286266003402,7.105639231877236,2.2443529658738335,492.88123045936,589.02873742923
1.7104001365748582E12,1.934782608695652,-6.0978260869565215,4.804347826086956,-4.854146224754599,7.097561609454347,2.243415384699748,492.8572860786064,589.0188567660877
1.7104001365943901E12,1.934782608695652,-6.119565217391304,4.771739130434782,-4.86150263088973,7.1022495153247736,2.240746884435044,492.8630558089085,589.0220301177538
1.7104001366139219E12,1.934782608695652,-6.08695652173913,4.782608695652174,-4.8550116842999085,7.103042853241307,2.2480311689413988,492.85815153815173,589.0145294683612
1.7104001366334536E12,1.9239130434782608,-6.0978260869565215,4.739130434782608,-4.852992278694186,7.1029707316125315,2.249978452918345,492.8754607290579,589.0200828337769
1.7104001366529854E12,1.9130434782608696,-6.119565217391304,4.760869565217392,-4.8519104542625495,7.105999840021115,2.254089385758565,492.85887275443946,589.0086876164303
1.710400136672517E12,1.9565217391304348,-6.119565217391304,4.760869565217392,-4.840154628772096,7.104845893960702,2.2646912651886066,492.8758213372018,589.0062354810519
1.7104001366920488E12,1.9456521739130435,-6.119565217391304,4.760869565217392,-4.820393302487529,7.14876796588516,2.32837466339763,492.8806534863298,588.9697419368913
1.7104001367115806E12,1.9130434782608696,-6.141304347826087,4.815217391304348,-4.803011989952563,7.186126969591019,2.383114979638455,492.86017094375745,588.9493315159478
1.7104001367311123E12,1.9130434782608696,-6.163043478260869,4.793478260869565,-4.783467028554324,7.1773281308803725,2.393861102326048,492.8675994715214,588.9424799612141
1.710400136750644E12,1.9456521739130435,-6.130434782608695,4.782608695652174,-4.8210423971465115,7.134199396872449,2.313156999725938,492.85065088875905,588.942191474699
1.7104001367701758E12,1.934782608695652,-6.08695652173913,4.771739130434782,-4.830562452144916,7.091575514265957,2.2610130621210414,492.8782734725802,588.9392344879192
1.7104001367897078E12,1.9565217391304348,-6.119565217391304,4.75,-4.83049033051614,7.090926419606975,2.260436089090835,492.86399339008256,588.9709680045805
1.7104001368092395E12,1.9565217391304348,-6.119565217391304,4.75,-4.833086709152068,7.0803245401769335,2.247237831024865,492.85050664550147,588.9705352748078
1.7104001368287712E12,1.967391304347826,-6.119565217391304,4.793478260869565,-4.840731601802302,7.051475888666618,2.210744286864315,492.85303090250864,589.0599660944898
1.710400136848303E12,1.9456521739130435,-6.1521739130434785,4.804347826086956,-4.5248388677643385,7.375157758612366,2.850318890848028,492.85750244349276,588.9069239982276
1.7104001368678347E12,1.967391304347826,-6.1521739130434785,4.793478260869565,-4.51950186723493,7.549547856992229,3.030045989757298,492.87986014841323,588.5893724667278
1.7104001368873665E12,1.9782608695652173,-6.0978260869565215,4.739130434782608,-4.846573453733141,7.0261611969663145,2.1795877432331734,492.8771195265198,588.8335041801339
1.7104001369068982E12,1.9021739130434783,-6.0978260869565215,4.858695652173913,-4.789741610257818,7.14891220914271,2.3591705988848926,492.8629836872797,589.0092645894605
1.71040013692643E12,1.9456521739130435,-6.130434782608695,4.739130434782608,-4.793419813325383,7.150426763347002,2.357006950021619,492.85533879462946,589.0176306983984
1.7104001369459617E12,1.934782608695652,-6.0978260869565215,4.739130434782608,-4.795439218931105,7.169250508457483,2.373811289526378,492.8487036047821,589.0270786317681
1.7104001369654937E12,1.9565217391304348,-6.054347826086956,4.717391304347826,-4.777048203593279,7.185838483075916,2.4087902794826364,492.86399339008256,589.0449647957045
1.7104001369850254E12,1.934782608695652,-6.141304347826087,4.728260869565217,-4.772865149124283,7.200623416974953,2.4277582678506695,492.86074791678766,589.0550618237331
1.7104001370045571E12,1.9021739130434783,-6.173913043478261,4.826086956521739,-4.746468632992343,7.219230797199106,2.472762164206763,492.8537521187964,589.0823237994103
1.7104001370240889E12,1.9239130434782608,-6.206521739130435,4.760869565217392,-4.719855751974077,7.2394248532563275,2.519569101282251,492.88425956776854,589.1235052494413
1.7104001370436206E12,1.934782608695652,-6.1521739130434785,4.728260869565217,-4.676077923307171,7.279019627454237,2.6029417041470655,492.8599545788711,589.1749279707585
1.7104001370631523E12,1.9239130434782608,-6.1521739130434785,4.739130434782608,-4.61989517449083,7.308228887108432,2.6883337126176015,492.84949694269864,589.2119984879492
1.710400137082684E12,1.8804347826086956,-6.130434782608695,4.717391304347826,-4.55599541139548,7.338880579338143,2.782885167942663,492.84625146940374,589.2119263663204
1.7104001371022158E12,1.8804347826086956,-6.141304347826087,4.717391304347826,-4.559385127947942,7.36549346035641,2.806108332408468,492.832981089709,589.1475938734525
1.7104001371217476E12,1.9021739130434783,-6.0978260869565215,4.793478260869565,-4.6386467979725365,7.353737634865956,2.71509083689342,492.8341350357694,589.0523933234684
1.7104001371412793E12,1.9239130434782608,-6.141304347826087,4.760869565217392,-4.7850537043873915,7.2668310721911284,2.481777367803737,492.83002410292914,588.9604382467793
1.7104001371608113E12,1.9239130434782608,-6.130434782608695,4.760869565217392,-4.842101912749042,7.236900596249175,2.394798683500133,492.86521945777173,588.9219974186418
1.710400137180343E12,1.9565217391304348,-6.141304347826087,4.75,-4.880182132742659,7.220096256744416,2.3399141240017562,492.85533879462946,588.9166604181123
1.7104001371998748E12,1.967391304347826,-6.141304347826087,4.728260869565217,-4.884725795355535,7.211225296404994,2.3264995010494594,492.8612527681891,588.9176701209152
1.7104001372194065E12,1.9239130434782608,-6.163043478260869,4.760869565217392,-4.905424702814186,7.23098662268956,2.325561919875374,492.82973561641404,588.9080058226592
1.7104001372389382E12,1.9456521739130435,-6.119565217391304,4.728260869565217,-4.910689581714819,7.239496974885103,2.3288073931702846,492.82252345353646,588.9043997412205
